# OpenSignals Text File Format. Version 1
# {"98:D3:71:FD:62:0B": {"position": 0, "device": "bitalino_rev", "device name": "98:D3:71:FD:62:0B", "device connection": "BTH98:D3:71:FD:62:0B", "sampling rate": 1000, "resolution": [4, 1, 1, 1, 1, 10, 10], "firmware version": 1282, "comments": "", "keywords": "", "mode": 0, "sync interval": 2, "date": "2025-1-20", "time": "14:5:40.564", "channels": [1, 2], "sensor": ["RAW", "RAW"], "label": ["A1", "A2"], "column": ["nSeq", "I1", "I2", "O1", "O2", "A1", "A2"], "special": [{}, {}], "digital IO": [0, 0, 1, 1]}}
# EndOfHeader
0	0	0	0	0	489	1	
1	0	0	0	0	475	1	
2	0	0	0	0	456	1	
3	0	0	0	0	445	1	
4	0	0	0	0	451	0	
5	0	0	0	0	464	0	
6	0	0	0	0	461	1	
7	0	0	0	0	448	0	
8	0	0	0	0	469	1	
9	0	0	0	0	510	1	
10	0	0	0	0	534	1	
11	0	0	0	0	549	1	
12	0	0	0	0	560	1	
13	0	0	0	0	562	1	
14	0	0	0	0	561	1	
15	0	0	0	0	553	1	
0	0	0	0	0	553	1	
1	0	0	0	0	564	1	
2	0	0	0	0	545	2	
3	0	0	0	0	512	1	
4	0	0	0	0	490	1	
5	0	0	0	0	470	0	
6	0	0	0	0	459	1	
7	0	0	0	0	455	1	
8	0	0	0	0	458	1	
9	0	0	0	0	466	1	
10	0	0	0	0	462	1	
11	0	0	0	0	451	0	
12	0	0	0	0	470	0	
13	0	0	0	0	510	1	
14	0	0	0	0	533	1	
15	0	0	0	0	548	1	
0	0	0	0	0	555	1	
1	0	0	0	0	558	1	
2	0	0	0	0	555	2	
3	0	0	0	0	550	1	
4	0	0	0	0	555	0	
5	0	0	0	0	568	1	
6	0	0	0	0	551	1	
7	0	0	0	0	516	1	
8	0	0	0	0	489	1	
9	0	0	0	0	472	1	
10	0	0	0	0	459	1	
11	0	0	0	0	456	0	
12	0	0	0	0	457	1	
13	0	0	0	0	469	1	
14	0	0	0	0	461	0	
15	0	0	0	0	453	1	
0	0	0	0	0	470	1	
1	0	0	0	0	503	1	
2	0	0	0	0	528	1	
3	0	0	0	0	547	1	
4	0	0	0	0	559	1	
5	0	0	0	0	559	1	
6	0	0	0	0	559	1	
7	0	0	0	0	551	1	
8	0	0	0	0	558	1	
9	0	0	0	0	571	1	
10	0	0	0	0	550	1	
11	0	0	0	0	513	1	
12	0	0	0	0	488	1	
13	0	0	0	0	472	1	
14	0	0	0	0	456	1	
15	0	0	0	0	451	0	
0	0	0	0	0	455	0	
1	0	0	0	0	463	1	
2	0	0	0	0	456	1	
3	0	0	0	0	450	0	
4	0	0	0	0	473	0	
5	0	0	0	0	513	1	
6	0	0	0	0	534	1	
7	0	0	0	0	547	1	
8	0	0	0	0	562	1	
9	0	0	0	0	564	1	
10	0	0	0	0	559	2	
11	0	0	0	0	552	1	
12	0	0	0	0	558	0	
13	0	0	0	0	570	1	
14	0	0	0	0	547	1	
15	0	0	0	0	511	1	
0	0	0	0	0	487	1	
1	0	0	0	0	472	1	
2	0	0	0	0	456	1	
3	0	0	0	0	455	0	
4	0	0	0	0	459	0	
5	0	0	0	0	465	1	
6	0	0	0	0	456	0	
7	0	0	0	0	449	0	
8	0	0	0	0	468	1	
9	0	0	0	0	509	1	
10	0	0	0	0	530	1	
11	0	0	0	0	547	1	
12	0	0	0	0	560	1	
13	0	0	0	0	559	1	
14	0	0	0	0	558	1	
15	0	0	0	0	552	1	
0	0	0	0	0	558	1	
1	0	0	0	0	568	1	
2	0	0	0	0	550	2	
3	0	0	0	0	514	1	
4	0	0	0	0	491	1	
5	0	0	0	0	471	0	
6	0	0	0	0	457	1	
7	0	0	0	0	453	1	
8	0	0	0	0	459	1	
9	0	0	0	0	463	1	
10	0	0	0	0	458	1	
11	0	0	0	0	452	0	
12	0	0	0	0	473	1	
13	0	0	0	0	510	1	
14	0	0	0	0	533	1	
15	0	0	0	0	547	0	
0	0	0	0	0	559	1	
1	0	0	0	0	558	1	
2	0	0	0	0	558	2	
3	0	0	0	0	550	1	
4	0	0	0	0	557	1	
5	0	0	0	0	570	1	
6	0	0	0	0	550	1	
7	0	0	0	0	510	0	
8	0	0	0	0	489	1	
9	0	0	0	0	472	1	
10	0	0	0	0	457	1	
11	0	0	0	0	453	0	
12	0	0	0	0	456	1	
13	0	0	0	0	463	1	
14	0	0	0	0	460	0	
15	0	0	0	0	447	0	
0	0	0	0	0	473	1	
1	0	0	0	0	509	1	
2	0	0	0	0	530	1	
3	0	0	0	0	548	1	
4	0	0	0	0	559	1	
5	0	0	0	0	561	1	
6	0	0	0	0	557	1	
7	0	0	0	0	549	1	
8	0	0	0	0	558	1	
9	0	0	0	0	568	1	
10	0	0	0	0	545	1	
11	0	0	0	0	510	1	
12	0	0	0	0	488	1	
13	0	0	0	0	468	1	
14	0	0	0	0	459	1	
15	0	0	0	0	457	0	
0	0	0	0	0	461	0	
1	0	0	0	0	469	1	
2	0	0	0	0	464	1	
3	0	0	0	0	455	0	
4	0	0	0	0	476	1	
5	0	0	0	0	513	1	
6	0	0	0	0	533	1	
7	0	0	0	0	548	1	
8	0	0	0	0	558	1	
9	0	0	0	0	562	1	
10	0	0	0	0	556	1	
11	0	0	0	0	548	1	
12	0	0	0	0	556	1	
13	0	0	0	0	565	1	
14	0	0	0	0	544	1	
15	0	0	0	0	511	1	
0	0	0	0	0	489	1	
1	0	0	0	0	472	1	
2	0	0	0	0	456	0	
3	0	0	0	0	453	1	
4	0	0	0	0	459	1	
5	0	0	0	0	471	1	
6	0	0	0	0	464	1	
7	0	0	0	0	455	1	
8	0	0	0	0	476	1	
9	0	0	0	0	512	1	
10	0	0	0	0	535	1	
11	0	0	0	0	549	1	
12	0	0	0	0	553	1	
13	0	0	0	0	556	1	
14	0	0	0	0	555	1	
15	0	0	0	0	550	1	
0	0	0	0	0	555	1	
1	0	0	0	0	564	1	
2	0	0	0	0	545	1	
3	0	0	0	0	512	1	
4	0	0	0	0	492	1	
5	0	0	0	0	473	1	
6	0	0	0	0	459	1	
7	0	0	0	0	457	1	
8	0	0	0	0	461	0	
9	0	0	0	0	469	1	
10	0	0	0	0	460	1	
11	0	0	0	0	451	0	
12	0	0	0	0	476	1	
13	0	0	0	0	510	1	
14	0	0	0	0	531	1	
15	0	0	0	0	543	1	
0	0	0	0	0	552	1	
1	0	0	0	0	558	1	
2	0	0	0	0	558	1	
3	0	0	0	0	551	1	
4	0	0	0	0	560	1	
5	0	0	0	0	563	1	
6	0	0	0	0	544	1	
7	0	0	0	0	511	0	
8	0	0	0	0	491	1	
9	0	0	0	0	473	1	
10	0	0	0	0	459	1	
11	0	0	0	0	457	1	
12	0	0	0	0	459	1	
13	0	0	0	0	467	1	
14	0	0	0	0	462	0	
15	0	0	0	0	451	0	
0	0	0	0	0	477	1	
1	0	0	0	0	512	1	
2	0	0	0	0	535	1	
3	0	0	0	0	547	1	
4	0	0	0	0	556	1	
5	0	0	0	0	560	1	
6	0	0	0	0	556	1	
7	0	0	0	0	551	0	
8	0	0	0	0	556	1	
9	0	0	0	0	561	1	
10	0	0	0	0	546	1	
11	0	0	0	0	511	1	
12	0	0	0	0	489	1	
13	0	0	0	0	468	0	
14	0	0	0	0	459	1	
15	0	0	0	0	455	0	
0	0	0	0	0	459	0	
1	0	0	0	0	469	1	
2	0	0	0	0	462	1	
3	0	0	0	0	456	1	
4	0	0	0	0	478	1	
5	0	0	0	0	513	1	
6	0	0	0	0	529	1	
7	0	0	0	0	542	1	
8	0	0	0	0	553	1	
9	0	0	0	0	560	1	
10	0	0	0	0	557	2	
11	0	0	0	0	549	1	
12	0	0	0	0	556	1	
13	0	0	0	0	566	1	
14	0	0	0	0	545	1	
15	0	0	0	0	511	1	
0	0	0	0	0	488	1	
1	0	0	0	0	472	1	
2	0	0	0	0	457	1	
3	0	0	0	0	456	1	
4	0	0	0	0	459	0	
5	0	0	0	0	464	1	
6	0	0	0	0	460	0	
7	0	0	0	0	456	0	
8	0	0	0	0	478	1	
9	0	0	0	0	510	1	
10	0	0	0	0	535	1	
11	0	0	0	0	550	1	
12	0	0	0	0	557	0	
13	0	0	0	0	555	1	
14	0	0	0	0	557	1	
15	0	0	0	0	550	1	
0	0	0	0	0	560	1	
1	0	0	0	0	567	1	
2	0	0	0	0	543	2	
3	0	0	0	0	511	1	
4	0	0	0	0	491	0	
5	0	0	0	0	471	1	
6	0	0	0	0	456	1	
7	0	0	0	0	455	1	
8	0	0	0	0	456	1	
9	0	0	0	0	466	1	
10	0	0	0	0	460	1	
11	0	0	0	0	454	1	
12	0	0	0	0	477	1	
13	0	0	0	0	513	1	
14	0	0	0	0	535	1	
15	0	0	0	0	550	1	
0	0	0	0	0	560	1	
1	0	0	0	0	560	1	
2	0	0	0	0	557	1	
3	0	0	0	0	550	1	
4	0	0	0	0	558	1	
5	0	0	0	0	568	1	
6	0	0	0	0	542	1	
7	0	0	0	0	488	1	
8	0	0	0	0	460	1	
9	0	0	0	0	460	1	
10	0	0	0	0	464	1	
11	0	0	0	0	476	1	
12	0	0	0	0	485	1	
13	0	0	0	0	494	1	
14	0	0	0	0	488	1	
15	0	0	0	0	489	1	
0	0	0	0	0	504	1	
1	0	0	0	0	519	1	
2	0	0	0	0	523	1	
3	0	0	0	0	528	1	
4	0	0	0	0	527	0	
5	0	0	0	0	524	1	
6	0	0	0	0	522	1	
7	0	0	0	0	515	1	
8	0	0	0	0	523	1	
9	0	0	0	0	526	1	
10	0	0	0	0	514	1	
11	0	0	0	0	503	1	
12	0	0	0	0	498	0	
13	0	0	0	0	499	1	
14	0	0	0	0	495	1	
15	0	0	0	0	497	1	
0	0	0	0	0	500	1	
1	0	0	0	0	503	1	
2	0	0	0	0	498	1	
3	0	0	0	0	495	1	
4	0	0	0	0	504	1	
5	0	0	0	0	514	1	
6	0	0	0	0	517	1	
7	0	0	0	0	519	1	
8	0	0	0	0	520	1	
9	0	0	0	0	519	1	
10	0	0	0	0	518	1	
11	0	0	0	0	517	1	
12	0	0	0	0	520	1	
13	0	0	0	0	521	1	
14	0	0	0	0	515	1	
15	0	0	0	0	509	1	
0	0	0	0	0	506	1	
1	0	0	0	0	503	1	
2	0	0	0	0	500	1	
3	0	0	0	0	501	1	
4	0	0	0	0	499	1	
5	0	0	0	0	502	1	
6	0	0	0	0	496	1	
7	0	0	0	0	494	1	
8	0	0	0	0	502	1	
9	0	0	0	0	509	1	
10	0	0	0	0	512	1	
11	0	0	0	0	513	1	
12	0	0	0	0	518	1	
13	0	0	0	0	519	1	
14	0	0	0	0	519	1	
15	0	0	0	0	519	0	
0	0	0	0	0	519	1	
1	0	0	0	0	521	1	
2	0	0	0	0	517	1	
3	0	0	0	0	511	1	
4	0	0	0	0	509	1	
5	0	0	0	0	504	1	
6	0	0	0	0	502	1	
7	0	0	0	0	502	0	
8	0	0	0	0	502	1	
9	0	0	0	0	500	1	
10	0	0	0	0	501	1	
11	0	0	0	0	502	1	
12	0	0	0	0	505	1	
13	0	0	0	0	508	1	
14	0	0	0	0	506	1	
15	0	0	0	0	506	1	
0	0	0	0	0	513	1	
1	0	0	0	0	516	1	
2	0	0	0	0	518	1	
3	0	0	0	0	518	1	
4	0	0	0	0	521	1	
5	0	0	0	0	520	1	
6	0	0	0	0	516	1	
7	0	0	0	0	509	1	
8	0	0	0	0	509	1	
9	0	0	0	0	506	1	
10	0	0	0	0	500	1	
11	0	0	0	0	500	1	
12	0	0	0	0	501	1	
13	0	0	0	0	498	1	
14	0	0	0	0	498	1	
15	0	0	0	0	499	1	
0	0	0	0	0	504	1	
1	0	0	0	0	511	1	
2	0	0	0	0	516	1	
3	0	0	0	0	519	1	
4	0	0	0	0	519	1	
5	0	0	0	0	518	1	
6	0	0	0	0	516	1	
7	0	0	0	0	518	1	
8	0	0	0	0	520	1	
9	0	0	0	0	519	1	
10	0	0	0	0	512	1	
11	0	0	0	0	508	1	
12	0	0	0	0	507	1	
13	0	0	0	0	503	1	
14	0	0	0	0	501	1	
15	0	0	0	0	500	1	
0	0	0	0	0	502	1	
1	0	0	0	0	504	1	
2	0	0	0	0	498	1	
3	0	0	0	0	498	1	
4	0	0	0	0	504	1	
5	0	0	0	0	509	1	
6	0	0	0	0	513	1	
7	0	0	0	0	518	1	
8	0	0	0	0	518	1	
9	0	0	0	0	518	1	
10	0	0	0	0	517	1	
11	0	0	0	0	516	1	
12	0	0	0	0	516	1	
13	0	0	0	0	516	1	
14	0	0	0	0	515	1	
15	0	0	0	0	510	1	
0	0	0	0	0	508	1	
1	0	0	0	0	504	1	
2	0	0	0	0	500	1	
3	0	0	0	0	500	1	
4	0	0	0	0	500	1	
5	0	0	0	0	503	1	
6	0	0	0	0	502	1	
7	0	0	0	0	504	1	
8	0	0	0	0	501	1	
9	0	0	0	0	504	1	
10	0	0	0	0	511	1	
11	0	0	0	0	515	1	
12	0	0	0	0	519	1	
13	0	0	0	0	518	1	
14	0	0	0	0	518	1	
15	0	0	0	0	516	1	
0	0	0	0	0	521	1	
1	0	0	0	0	521	1	
2	0	0	0	0	514	1	
3	0	0	0	0	508	1	
4	0	0	0	0	507	1	
5	0	0	0	0	504	1	
6	0	0	0	0	504	1	
7	0	0	0	0	502	0	
8	0	0	0	0	504	1	
9	0	0	0	0	505	1	
10	0	0	0	0	497	1	
11	0	0	0	0	494	1	
12	0	0	0	0	501	1	
13	0	0	0	0	506	1	
14	0	0	0	0	512	1	
15	0	0	0	0	515	0	
0	0	0	0	0	513	1	
1	0	0	0	0	518	1	
2	0	0	0	0	519	1	
3	0	0	0	0	515	1	
4	0	0	0	0	520	1	
5	0	0	0	0	522	1	
6	0	0	0	0	517	1	
7	0	0	0	0	511	1	
8	0	0	0	0	507	1	
9	0	0	0	0	506	1	
10	0	0	0	0	504	1	
11	0	0	0	0	499	1	
12	0	0	0	0	500	1	
13	0	0	0	0	501	1	
14	0	0	0	0	496	1	
15	0	0	0	0	496	1	
0	0	0	0	0	504	1	
1	0	0	0	0	508	1	
2	0	0	0	0	510	1	
3	0	0	0	0	513	1	
4	0	0	0	0	516	1	
5	0	0	0	0	518	1	
6	0	0	0	0	519	1	
7	0	0	0	0	520	1	
8	0	0	0	0	521	1	
9	0	0	0	0	519	1	
10	0	0	0	0	513	1	
11	0	0	0	0	510	1	
12	0	0	0	0	509	0	
13	0	0	0	0	504	1	
14	0	0	0	0	503	1	
15	0	0	0	0	503	1	
0	0	0	0	0	501	1	
1	0	0	0	0	502	1	
2	0	0	0	0	499	1	
3	0	0	0	0	499	1	
4	0	0	0	0	501	0	
5	0	0	0	0	508	1	
6	0	0	0	0	517	1	
7	0	0	0	0	518	1	
8	0	0	0	0	517	1	
9	0	0	0	0	515	1	
10	0	0	0	0	514	1	
11	0	0	0	0	515	1	
12	0	0	0	0	521	0	
13	0	0	0	0	521	1	
14	0	0	0	0	513	1	
15	0	0	0	0	510	1	
0	0	0	0	0	509	1	
1	0	0	0	0	505	1	
2	0	0	0	0	502	1	
3	0	0	0	0	500	1	
4	0	0	0	0	499	1	
5	0	0	0	0	500	1	
6	0	0	0	0	496	1	
7	0	0	0	0	499	1	
8	0	0	0	0	504	1	
9	0	0	0	0	509	1	
10	0	0	0	0	513	1	
11	0	0	0	0	515	1	
12	0	0	0	0	521	1	
13	0	0	0	0	521	1	
14	0	0	0	0	518	1	
15	0	0	0	0	515	1	
0	0	0	0	0	520	1	
1	0	0	0	0	521	1	
2	0	0	0	0	516	1	
3	0	0	0	0	513	1	
4	0	0	0	0	507	1	
5	0	0	0	0	502	1	
6	0	0	0	0	501	1	
7	0	0	0	0	499	1	
8	0	0	0	0	499	1	
9	0	0	0	0	502	1	
10	0	0	0	0	498	1	
11	0	0	0	0	498	1	
12	0	0	0	0	503	0	
13	0	0	0	0	512	1	
14	0	0	0	0	512	1	
15	0	0	0	0	515	1	
0	0	0	0	0	519	1	
1	0	0	0	0	519	1	
2	0	0	0	0	516	1	
3	0	0	0	0	515	1	
4	0	0	0	0	516	0	
5	0	0	0	0	517	1	
6	0	0	0	0	511	1	
7	0	0	0	0	510	1	
8	0	0	0	0	508	1	
9	0	0	0	0	509	1	
10	0	0	0	0	503	1	
11	0	0	0	0	501	1	
12	0	0	0	0	500	0	
13	0	0	0	0	503	1	
14	0	0	0	0	499	1	
15	0	0	0	0	498	1	
0	0	0	0	0	506	1	
1	0	0	0	0	509	1	
2	0	0	0	0	511	1	
3	0	0	0	0	513	1	
4	0	0	0	0	512	1	
5	0	0	0	0	517	1	
6	0	0	0	0	519	1	
7	0	0	0	0	517	1	
8	0	0	0	0	522	1	
9	0	0	0	0	519	1	
10	0	0	0	0	515	1	
11	0	0	0	0	511	1	
12	0	0	0	0	508	1	
13	0	0	0	0	505	1	
14	0	0	0	0	502	1	
15	0	0	0	0	499	1	
0	0	0	0	0	502	1	
1	0	0	0	0	502	1	
2	0	0	0	0	497	1	
3	0	0	0	0	498	1	
4	0	0	0	0	508	1	
5	0	0	0	0	512	1	
6	0	0	0	0	513	1	
7	0	0	0	0	515	0	
8	0	0	0	0	518	1	
9	0	0	0	0	518	1	
10	0	0	0	0	519	1	
11	0	0	0	0	516	1	
12	0	0	0	0	519	1	
13	0	0	0	0	522	1	
14	0	0	0	0	515	1	
15	0	0	0	0	507	0	
0	0	0	0	0	504	1	
1	0	0	0	0	502	1	
2	0	0	0	0	498	1	
3	0	0	0	0	497	1	
4	0	0	0	0	498	1	
5	0	0	0	0	500	1	
6	0	0	0	0	494	1	
7	0	0	0	0	496	0	
8	0	0	0	0	507	1	
9	0	0	0	0	513	1	
10	0	0	0	0	516	1	
11	0	0	0	0	518	1	
12	0	0	0	0	520	1	
13	0	0	0	0	521	1	
14	0	0	0	0	517	1	
15	0	0	0	0	515	1	
0	0	0	0	0	524	1	
1	0	0	0	0	524	1	
2	0	0	0	0	515	1	
3	0	0	0	0	505	1	
4	0	0	0	0	502	1	
5	0	0	0	0	496	1	
6	0	0	0	0	497	1	
7	0	0	0	0	499	1	
8	0	0	0	0	499	1	
9	0	0	0	0	499	1	
10	0	0	0	0	493	1	
11	0	0	0	0	495	1	
12	0	0	0	0	504	1	
13	0	0	0	0	512	1	
14	0	0	0	0	515	1	
15	0	0	0	0	519	1	
0	0	0	0	0	522	1	
1	0	0	0	0	523	1	
2	0	0	0	0	523	1	
3	0	0	0	0	519	1	
4	0	0	0	0	531	1	
5	0	0	0	0	543	1	
6	0	0	0	0	530	1	
7	0	0	0	0	503	1	
8	0	0	0	0	492	1	
9	0	0	0	0	476	1	
10	0	0	0	0	466	1	
11	0	0	0	0	464	1	
12	0	0	0	0	472	1	
13	0	0	0	0	480	1	
14	0	0	0	0	466	1	
15	0	0	0	0	463	1	
0	0	0	0	0	489	1	
1	0	0	0	0	526	1	
2	0	0	0	0	541	1	
3	0	0	0	0	556	1	
4	0	0	0	0	563	1	
5	0	0	0	0	562	1	
6	0	0	0	0	559	1	
7	0	0	0	0	549	1	
8	0	0	0	0	562	1	
9	0	0	0	0	564	1	
10	0	0	0	0	536	1	
11	0	0	0	0	502	1	
12	0	0	0	0	481	1	
13	0	0	0	0	462	1	
14	0	0	0	0	453	1	
15	0	0	0	0	451	0	
0	0	0	0	0	455	0	
1	0	0	0	0	466	1	
2	0	0	0	0	458	1	
3	0	0	0	0	462	0	
4	0	0	0	0	488	1	
5	0	0	0	0	524	1	
6	0	0	0	0	540	1	
7	0	0	0	0	554	1	
8	0	0	0	0	561	1	
9	0	0	0	0	560	1	
10	0	0	0	0	551	1	
11	0	0	0	0	544	1	
12	0	0	0	0	559	1	
13	0	0	0	0	563	1	
14	0	0	0	0	531	1	
15	0	0	0	0	500	0	
0	0	0	0	0	487	1	
1	0	0	0	0	466	1	
2	0	0	0	0	456	1	
3	0	0	0	0	457	1	
4	0	0	0	0	465	1	
5	0	0	0	0	473	1	
6	0	0	0	0	465	1	
7	0	0	0	0	463	0	
8	0	0	0	0	490	1	
9	0	0	0	0	525	1	
10	0	0	0	0	541	1	
11	0	0	0	0	551	1	
12	0	0	0	0	551	1	
13	0	0	0	0	550	1	
14	0	0	0	0	546	1	
15	0	0	0	0	540	0	
0	0	0	0	0	550	1	
1	0	0	0	0	550	1	
2	0	0	0	0	526	1	
3	0	0	0	0	500	1	
4	0	0	0	0	483	1	
5	0	0	0	0	469	0	
6	0	0	0	0	466	1	
7	0	0	0	0	469	1	
8	0	0	0	0	473	1	
9	0	0	0	0	484	1	
10	0	0	0	0	472	1	
11	0	0	0	0	472	1	
12	0	0	0	0	499	1	
13	0	0	0	0	523	1	
14	0	0	0	0	534	1	
15	0	0	0	0	543	1	
0	0	0	0	0	549	1	
1	0	0	0	0	547	1	
2	0	0	0	0	536	1	
3	0	0	0	0	531	1	
4	0	0	0	0	545	1	
5	0	0	0	0	545	1	
6	0	0	0	0	522	1	
7	0	0	0	0	501	1	
8	0	0	0	0	488	1	
9	0	0	0	0	477	1	
10	0	0	0	0	469	1	
11	0	0	0	0	470	1	
12	0	0	0	0	476	0	
13	0	0	0	0	483	1	
14	0	0	0	0	472	1	
15	0	0	0	0	475	1	
0	0	0	0	0	502	1	
1	0	0	0	0	527	1	
2	0	0	0	0	536	1	
3	0	0	0	0	544	1	
4	0	0	0	0	542	0	
5	0	0	0	0	538	1	
6	0	0	0	0	536	1	
7	0	0	0	0	530	1	
8	0	0	0	0	542	1	
9	0	0	0	0	544	1	
10	0	0	0	0	523	1	
11	0	0	0	0	502	1	
12	0	0	0	0	488	1	
13	0	0	0	0	476	1	
14	0	0	0	0	472	1	
15	0	0	0	0	472	1	
0	0	0	0	0	479	1	
1	0	0	0	0	487	1	
2	0	0	0	0	476	1	
3	0	0	0	0	475	1	
4	0	0	0	0	497	1	
5	0	0	0	0	525	1	
6	0	0	0	0	532	1	
7	0	0	0	0	539	1	
8	0	0	0	0	542	1	
9	0	0	0	0	543	1	
10	0	0	0	0	533	1	
11	0	0	0	0	527	1	
12	0	0	0	0	529	1	
13	0	0	0	0	528	1	
14	0	0	0	0	511	1	
15	0	0	0	0	501	1	
0	0	0	0	0	497	1	
1	0	0	0	0	495	1	
2	0	0	0	0	495	1	
3	0	0	0	0	496	1	
4	0	0	0	0	499	0	
5	0	0	0	0	503	1	
6	0	0	0	0	494	1	
7	0	0	0	0	492	1	
8	0	0	0	0	501	1	
9	0	0	0	0	512	1	
10	0	0	0	0	515	1	
11	0	0	0	0	518	1	
12	0	0	0	0	520	0	
13	0	0	0	0	520	1	
14	0	0	0	0	517	1	
15	0	0	0	0	515	1	
0	0	0	0	0	518	1	
1	0	0	0	0	520	1	
2	0	0	0	0	515	1	
3	0	0	0	0	508	1	
4	0	0	0	0	508	0	
5	0	0	0	0	501	1	
6	0	0	0	0	499	1	
7	0	0	0	0	500	1	
8	0	0	0	0	502	1	
9	0	0	0	0	502	1	
10	0	0	0	0	496	1	
11	0	0	0	0	497	1	
12	0	0	0	0	504	1	
13	0	0	0	0	510	1	
14	0	0	0	0	512	1	
15	0	0	0	0	515	1	
0	0	0	0	0	518	1	
1	0	0	0	0	523	1	
2	0	0	0	0	520	1	
3	0	0	0	0	518	1	
4	0	0	0	0	520	1	
5	0	0	0	0	519	1	
6	0	0	0	0	514	1	
7	0	0	0	0	510	1	
8	0	0	0	0	506	1	
9	0	0	0	0	502	1	
10	0	0	0	0	499	1	
11	0	0	0	0	499	1	
12	0	0	0	0	499	1	
13	0	0	0	0	500	1	
14	0	0	0	0	500	1	
15	0	0	0	0	500	0	
0	0	0	0	0	505	1	
1	0	0	0	0	510	1	
2	0	0	0	0	508	1	
3	0	0	0	0	511	1	
4	0	0	0	0	516	1	
5	0	0	0	0	517	1	
6	0	0	0	0	520	1	
7	0	0	0	0	514	0	
8	0	0	0	0	519	1	
9	0	0	0	0	521	1	
10	0	0	0	0	516	1	
11	0	0	0	0	511	1	
12	0	0	0	0	507	1	
13	0	0	0	0	502	1	
14	0	0	0	0	502	1	
15	0	0	0	0	500	0	
0	0	0	0	0	502	1	
1	0	0	0	0	503	1	
2	0	0	0	0	498	1	
3	0	0	0	0	499	1	
4	0	0	0	0	505	1	
5	0	0	0	0	513	1	
6	0	0	0	0	513	1	
7	0	0	0	0	517	1	
8	0	0	0	0	518	1	
9	0	0	0	0	518	1	
10	0	0	0	0	518	1	
11	0	0	0	0	515	1	
12	0	0	0	0	517	1	
13	0	0	0	0	516	1	
14	0	0	0	0	511	1	
15	0	0	0	0	508	1	
0	0	0	0	0	507	1	
1	0	0	0	0	501	1	
2	0	0	0	0	500	1	
3	0	0	0	0	500	1	
4	0	0	0	0	500	1	
5	0	0	0	0	502	1	
6	0	0	0	0	497	1	
7	0	0	0	0	501	1	
8	0	0	0	0	506	1	
9	0	0	0	0	512	1	
10	0	0	0	0	511	1	
11	0	0	0	0	514	1	
12	0	0	0	0	517	1	
13	0	0	0	0	516	1	
14	0	0	0	0	516	1	
15	0	0	0	0	516	1	
0	0	0	0	0	521	1	
1	0	0	0	0	521	1	
2	0	0	0	0	515	1	
3	0	0	0	0	509	1	
4	0	0	0	0	507	1	
5	0	0	0	0	503	1	
6	0	0	0	0	501	1	
7	0	0	0	0	502	1	
8	0	0	0	0	500	1	
9	0	0	0	0	505	1	
10	0	0	0	0	499	1	
11	0	0	0	0	498	1	
12	0	0	0	0	504	1	
13	0	0	0	0	508	1	
14	0	0	0	0	512	1	
15	0	0	0	0	516	1	
0	0	0	0	0	519	1	
1	0	0	0	0	515	1	
2	0	0	0	0	514	1	
3	0	0	0	0	515	1	
4	0	0	0	0	519	1	
5	0	0	0	0	520	1	
6	0	0	0	0	518	1	
7	0	0	0	0	511	1	
8	0	0	0	0	507	1	
9	0	0	0	0	502	1	
10	0	0	0	0	497	1	
11	0	0	0	0	494	1	
12	0	0	0	0	498	1	
13	0	0	0	0	505	1	
14	0	0	0	0	500	1	
15	0	0	0	0	502	1	
0	0	0	0	0	507	1	
1	0	0	0	0	511	1	
2	0	0	0	0	512	1	
3	0	0	0	0	516	1	
4	0	0	0	0	518	1	
5	0	0	0	0	515	1	
6	0	0	0	0	515	1	
7	0	0	0	0	516	0	
8	0	0	0	0	522	1	
9	0	0	0	0	521	1	
10	0	0	0	0	517	1	
11	0	0	0	0	508	1	
12	0	0	0	0	505	1	
13	0	0	0	0	505	1	
14	0	0	0	0	501	1	
15	0	0	0	0	498	0	
0	0	0	0	0	500	1	
1	0	0	0	0	502	1	
2	0	0	0	0	498	1	
3	0	0	0	0	500	1	
4	0	0	0	0	506	1	
5	0	0	0	0	511	1	
6	0	0	0	0	515	1	
7	0	0	0	0	517	0	
8	0	0	0	0	518	1	
9	0	0	0	0	517	1	
10	0	0	0	0	517	1	
11	0	0	0	0	517	1	
12	0	0	0	0	521	1	
13	0	0	0	0	519	1	
14	0	0	0	0	513	1	
15	0	0	0	0	507	1	
0	0	0	0	0	500	1	
1	0	0	0	0	497	1	
2	0	0	0	0	498	1	
3	0	0	0	0	498	1	
4	0	0	0	0	500	1	
5	0	0	0	0	504	1	
6	0	0	0	0	496	1	
7	0	0	0	0	498	1	
8	0	0	0	0	508	1	
9	0	0	0	0	512	1	
10	0	0	0	0	515	1	
11	0	0	0	0	520	1	
12	0	0	0	0	523	1	
13	0	0	0	0	522	1	
14	0	0	0	0	523	1	
15	0	0	0	0	521	1	
0	0	0	0	0	534	1	
1	0	0	0	0	538	1	
2	0	0	0	0	522	1	
3	0	0	0	0	502	1	
4	0	0	0	0	491	0	
5	0	0	0	0	476	1	
6	0	0	0	0	473	1	
7	0	0	0	0	475	1	
8	0	0	0	0	480	1	
9	0	0	0	0	487	1	
10	0	0	0	0	471	1	
11	0	0	0	0	476	1	
12	0	0	0	0	505	0	
13	0	0	0	0	531	1	
14	0	0	0	0	544	1	
15	0	0	0	0	551	1	
0	0	0	0	0	552	1	
1	0	0	0	0	550	1	
2	0	0	0	0	543	2	
3	0	0	0	0	537	1	
4	0	0	0	0	551	0	
5	0	0	0	0	546	1	
6	0	0	0	0	517	1	
7	0	0	0	0	494	1	
8	0	0	0	0	480	1	
9	0	0	0	0	464	1	
10	0	0	0	0	461	1	
11	0	0	0	0	462	1	
12	0	0	0	0	466	1	
13	0	0	0	0	474	1	
14	0	0	0	0	458	1	
15	0	0	0	0	462	1	
0	0	0	0	0	488	1	
1	0	0	0	0	521	1	
2	0	0	0	0	539	1	
3	0	0	0	0	555	1	
4	0	0	0	0	562	1	
5	0	0	0	0	561	1	
6	0	0	0	0	558	1	
7	0	0	0	0	551	1	
8	0	0	0	0	567	1	
9	0	0	0	0	561	1	
10	0	0	0	0	532	1	
11	0	0	0	0	501	1	
12	0	0	0	0	484	0	
13	0	0	0	0	467	1	
14	0	0	0	0	456	0	
15	0	0	0	0	457	1	
0	0	0	0	0	464	1	
1	0	0	0	0	471	1	
2	0	0	0	0	452	1	
3	0	0	0	0	455	1	
4	0	0	0	0	489	0	
5	0	0	0	0	519	1	
6	0	0	0	0	535	1	
7	0	0	0	0	550	1	
8	0	0	0	0	556	1	
9	0	0	0	0	555	1	
10	0	0	0	0	551	2	
11	0	0	0	0	547	1	
12	0	0	0	0	570	0	
13	0	0	0	0	568	1	
14	0	0	0	0	530	1	
15	0	0	0	0	502	1	
0	0	0	0	0	486	1	
1	0	0	0	0	469	1	
2	0	0	0	0	454	1	
3	0	0	0	0	455	1	
4	0	0	0	0	459	1	
5	0	0	0	0	467	0	
6	0	0	0	0	449	0	
7	0	0	0	0	453	1	
8	0	0	0	0	489	1	
9	0	0	0	0	523	1	
10	0	0	0	0	540	1	
11	0	0	0	0	551	1	
12	0	0	0	0	561	1	
13	0	0	0	0	558	1	
14	0	0	0	0	552	1	
15	0	0	0	0	547	1	
0	0	0	0	0	567	1	
1	0	0	0	0	564	1	
2	0	0	0	0	534	1	
3	0	0	0	0	503	1	
4	0	0	0	0	485	1	
5	0	0	0	0	467	0	
6	0	0	0	0	458	1	
7	0	0	0	0	458	1	
8	0	0	0	0	461	1	
9	0	0	0	0	465	1	
10	0	0	0	0	451	1	
11	0	0	0	0	458	0	
12	0	0	0	0	489	1	
13	0	0	0	0	523	1	
14	0	0	0	0	539	1	
15	0	0	0	0	555	0	
0	0	0	0	0	559	1	
1	0	0	0	0	560	1	
2	0	0	0	0	555	2	
3	0	0	0	0	547	1	
4	0	0	0	0	564	1	
5	0	0	0	0	559	1	
6	0	0	0	0	530	1	
7	0	0	0	0	500	0	
8	0	0	0	0	480	1	
9	0	0	0	0	465	1	
10	0	0	0	0	456	1	
11	0	0	0	0	454	0	
12	0	0	0	0	459	1	
13	0	0	0	0	470	1	
14	0	0	0	0	454	1	
15	0	0	0	0	458	1	
0	0	0	0	0	492	1	
1	0	0	0	0	520	1	
2	0	0	0	0	537	1	
3	0	0	0	0	549	1	
4	0	0	0	0	556	1	
5	0	0	0	0	557	1	
6	0	0	0	0	556	1	
7	0	0	0	0	550	1	
8	0	0	0	0	567	1	
9	0	0	0	0	564	1	
10	0	0	0	0	533	1	
11	0	0	0	0	503	1	
12	0	0	0	0	485	1	
13	0	0	0	0	467	1	
14	0	0	0	0	455	1	
15	0	0	0	0	458	1	
0	0	0	0	0	463	0	
1	0	0	0	0	471	1	
2	0	0	0	0	449	1	
3	0	0	0	0	457	1	
4	0	0	0	0	489	1	
5	0	0	0	0	521	1	
6	0	0	0	0	536	1	
7	0	0	0	0	550	1	
8	0	0	0	0	555	1	
9	0	0	0	0	556	1	
10	0	0	0	0	551	1	
11	0	0	0	0	545	1	
12	0	0	0	0	565	1	
13	0	0	0	0	563	1	
14	0	0	0	0	533	1	
15	0	0	0	0	504	1	
0	0	0	0	0	486	1	
1	0	0	0	0	468	1	
2	0	0	0	0	458	0	
3	0	0	0	0	456	0	
4	0	0	0	0	460	1	
5	0	0	0	0	470	1	
6	0	0	0	0	450	0	
7	0	0	0	0	459	1	
8	0	0	0	0	491	1	
9	0	0	0	0	522	1	
10	0	0	0	0	538	1	
11	0	0	0	0	551	1	
12	0	0	0	0	558	1	
13	0	0	0	0	557	1	
14	0	0	0	0	554	1	
15	0	0	0	0	547	1	
0	0	0	0	0	566	1	
1	0	0	0	0	563	1	
2	0	0	0	0	532	1	
3	0	0	0	0	504	1	
4	0	0	0	0	486	1	
5	0	0	0	0	466	1	
6	0	0	0	0	453	1	
7	0	0	0	0	457	1	
8	0	0	0	0	458	0	
9	0	0	0	0	467	1	
10	0	0	0	0	447	1	
11	0	0	0	0	455	0	
12	0	0	0	0	491	1	
13	0	0	0	0	521	1	
14	0	0	0	0	540	1	
15	0	0	0	0	555	0	
0	0	0	0	0	560	1	
1	0	0	0	0	561	1	
2	0	0	0	0	556	2	
3	0	0	0	0	547	1	
4	0	0	0	0	566	1	
5	0	0	0	0	561	1	
6	0	0	0	0	529	1	
7	0	0	0	0	503	0	
8	0	0	0	0	485	1	
9	0	0	0	0	466	1	
10	0	0	0	0	457	1	
11	0	0	0	0	457	1	
12	0	0	0	0	462	1	
13	0	0	0	0	470	1	
14	0	0	0	0	452	0	
15	0	0	0	0	458	0	
0	0	0	0	0	491	1	
1	0	0	0	0	520	1	
2	0	0	0	0	536	1	
3	0	0	0	0	551	1	
4	0	0	0	0	557	1	
5	0	0	0	0	558	1	
6	0	0	0	0	554	1	
7	0	0	0	0	549	1	
8	0	0	0	0	570	1	
9	0	0	0	0	563	1	
10	0	0	0	0	529	1	
11	0	0	0	0	501	1	
12	0	0	0	0	483	1	
13	0	0	0	0	464	0	
14	0	0	0	0	455	1	
15	0	0	0	0	457	0	
0	0	0	0	0	461	1	
1	0	0	0	0	471	1	
2	0	0	0	0	450	1	
3	0	0	0	0	454	1	
4	0	0	0	0	489	1	
5	0	0	0	0	519	1	
6	0	0	0	0	538	1	
7	0	0	0	0	552	1	
8	0	0	0	0	563	1	
9	0	0	0	0	560	1	
10	0	0	0	0	553	2	
11	0	0	0	0	546	1	
12	0	0	0	0	565	0	
13	0	0	0	0	561	1	
14	0	0	0	0	534	1	
15	0	0	0	0	508	1	
0	0	0	0	0	484	1	
1	0	0	0	0	464	1	
2	0	0	0	0	457	1	
3	0	0	0	0	455	1	
4	0	0	0	0	462	0	
5	0	0	0	0	465	1	
6	0	0	0	0	447	0	
7	0	0	0	0	461	1	
8	0	0	0	0	494	1	
9	0	0	0	0	526	1	
10	0	0	0	0	540	1	
11	0	0	0	0	555	1	
12	0	0	0	0	559	0	
13	0	0	0	0	559	1	
14	0	0	0	0	553	1	
15	0	0	0	0	546	1	
0	0	0	0	0	563	1	
1	0	0	0	0	558	1	
2	0	0	0	0	525	1	
3	0	0	0	0	495	1	
4	0	0	0	0	483	1	
5	0	0	0	0	468	1	
6	0	0	0	0	458	1	
7	0	0	0	0	459	1	
8	0	0	0	0	465	1	
9	0	0	0	0	472	1	
10	0	0	0	0	451	1	
11	0	0	0	0	459	1	
12	0	0	0	0	493	1	
13	0	0	0	0	527	1	
14	0	0	0	0	540	1	
15	0	0	0	0	551	1	
0	0	0	0	0	558	1	
1	0	0	0	0	557	1	
2	0	0	0	0	552	1	
3	0	0	0	0	543	1	
4	0	0	0	0	562	1	
5	0	0	0	0	561	1	
6	0	0	0	0	530	1	
7	0	0	0	0	502	1	
8	0	0	0	0	484	1	
9	0	0	0	0	466	1	
10	0	0	0	0	458	1	
11	0	0	0	0	457	1	
12	0	0	0	0	463	0	
13	0	0	0	0	473	1	
14	0	0	0	0	451	0	
15	0	0	0	0	460	1	
0	0	0	0	0	494	1	
1	0	0	0	0	523	1	
2	0	0	0	0	538	1	
3	0	0	0	0	552	1	
4	0	0	0	0	560	0	
5	0	0	0	0	558	1	
6	0	0	0	0	553	1	
7	0	0	0	0	544	1	
8	0	0	0	0	564	1	
9	0	0	0	0	559	1	
10	0	0	0	0	529	1	
11	0	0	0	0	501	1	
12	0	0	0	0	483	1	
13	0	0	0	0	464	0	
14	0	0	0	0	458	0	
15	0	0	0	0	457	1	
0	0	0	0	0	463	1	
1	0	0	0	0	473	1	
2	0	0	0	0	451	1	
3	0	0	0	0	460	1	
4	0	0	0	0	491	1	
5	0	0	0	0	521	1	
6	0	0	0	0	540	1	
7	0	0	0	0	554	1	
8	0	0	0	0	560	1	
9	0	0	0	0	559	1	
10	0	0	0	0	555	2	
11	0	0	0	0	543	1	
12	0	0	0	0	561	1	
13	0	0	0	0	555	1	
14	0	0	0	0	524	1	
15	0	0	0	0	497	1	
0	0	0	0	0	483	1	
1	0	0	0	0	465	1	
2	0	0	0	0	460	1	
3	0	0	0	0	458	1	
4	0	0	0	0	463	1	
5	0	0	0	0	472	1	
6	0	0	0	0	452	0	
7	0	0	0	0	466	0	
8	0	0	0	0	498	1	
9	0	0	0	0	526	1	
10	0	0	0	0	539	1	
11	0	0	0	0	548	1	
12	0	0	0	0	552	1	
13	0	0	0	0	552	1	
14	0	0	0	0	550	1	
15	0	0	0	0	551	0	
0	0	0	0	0	570	1	
1	0	0	0	0	562	1	
2	0	0	0	0	528	1	
3	0	0	0	0	502	1	
4	0	0	0	0	483	1	
5	0	0	0	0	463	1	
6	0	0	0	0	458	0	
7	0	0	0	0	457	0	
8	0	0	0	0	462	0	
9	0	0	0	0	467	1	
10	0	0	0	0	450	1	
11	0	0	0	0	459	0	
12	0	0	0	0	494	1	
13	0	0	0	0	524	1	
14	0	0	0	0	539	1	
15	0	0	0	0	552	1	
0	0	0	0	0	559	1	
1	0	0	0	0	558	1	
2	0	0	0	0	553	1	
3	0	0	0	0	545	1	
4	0	0	0	0	569	1	
5	0	0	0	0	560	1	
6	0	0	0	0	527	1	
7	0	0	0	0	498	1	
8	0	0	0	0	481	0	
9	0	0	0	0	465	1	
10	0	0	0	0	455	1	
11	0	0	0	0	454	0	
12	0	0	0	0	465	1	
13	0	0	0	0	472	1	
14	0	0	0	0	451	0	
15	0	0	0	0	463	1	
0	0	0	0	0	496	1	
1	0	0	0	0	526	1	
2	0	0	0	0	534	1	
3	0	0	0	0	548	1	
4	0	0	0	0	555	1	
5	0	0	0	0	556	1	
6	0	0	0	0	555	1	
7	0	0	0	0	550	1	
8	0	0	0	0	567	1	
9	0	0	0	0	559	1	
10	0	0	0	0	528	1	
11	0	0	0	0	504	1	
12	0	0	0	0	481	1	
13	0	0	0	0	460	1	
14	0	0	0	0	455	0	
15	0	0	0	0	456	0	
0	0	0	0	0	464	1	
1	0	0	0	0	465	1	
2	0	0	0	0	449	0	
3	0	0	0	0	461	1	
4	0	0	0	0	498	1	
5	0	0	0	0	526	1	
6	0	0	0	0	542	1	
7	0	0	0	0	549	1	
8	0	0	0	0	556	1	
9	0	0	0	0	556	1	
10	0	0	0	0	548	1	
11	0	0	0	0	545	1	
12	0	0	0	0	564	1	
13	0	0	0	0	558	1	
14	0	0	0	0	523	1	
15	0	0	0	0	499	1	
0	0	0	0	0	486	1	
1	0	0	0	0	466	1	
2	0	0	0	0	460	1	
3	0	0	0	0	460	0	
4	0	0	0	0	467	1	
5	0	0	0	0	471	1	
6	0	0	0	0	456	0	
7	0	0	0	0	462	1	
8	0	0	0	0	495	1	
9	0	0	0	0	527	1	
10	0	0	0	0	535	1	
11	0	0	0	0	550	1	
12	0	0	0	0	556	1	
13	0	0	0	0	558	1	
14	0	0	0	0	553	1	
15	0	0	0	0	546	0	
0	0	0	0	0	564	1	
1	0	0	0	0	554	1	
2	0	0	0	0	520	1	
3	0	0	0	0	492	1	
4	0	0	0	0	479	1	
5	0	0	0	0	464	1	
6	0	0	0	0	455	0	
7	0	0	0	0	462	0	
8	0	0	0	0	472	1	
9	0	0	0	0	476	1	
10	0	0	0	0	460	1	
11	0	0	0	0	467	1	
12	0	0	0	0	500	1	
13	0	0	0	0	527	1	
14	0	0	0	0	536	1	
15	0	0	0	0	548	1	
0	0	0	0	0	554	1	
1	0	0	0	0	550	1	
2	0	0	0	0	548	2	
3	0	0	0	0	542	1	
4	0	0	0	0	562	1	
5	0	0	0	0	554	1	
6	0	0	0	0	526	1	
7	0	0	0	0	503	1	
8	0	0	0	0	485	1	
9	0	0	0	0	467	1	
10	0	0	0	0	458	1	
11	0	0	0	0	455	1	
12	0	0	0	0	466	1	
13	0	0	0	0	466	0	
14	0	0	0	0	452	1	
15	0	0	0	0	464	1	
0	0	0	0	0	495	1	
1	0	0	0	0	525	1	
2	0	0	0	0	540	1	
3	0	0	0	0	551	1	
4	0	0	0	0	556	1	
5	0	0	0	0	556	1	
6	0	0	0	0	553	1	
7	0	0	0	0	549	1	
8	0	0	0	0	568	1	
9	0	0	0	0	557	1	
10	0	0	0	0	524	1	
11	0	0	0	0	499	1	
12	0	0	0	0	483	0	
13	0	0	0	0	459	1	
14	0	0	0	0	451	1	
15	0	0	0	0	456	1	
0	0	0	0	0	464	1	
1	0	0	0	0	468	1	
2	0	0	0	0	455	1	
3	0	0	0	0	466	1	
4	0	0	0	0	502	0	
5	0	0	0	0	526	1	
6	0	0	0	0	539	1	
7	0	0	0	0	552	1	
8	0	0	0	0	557	1	
9	0	0	0	0	555	1	
10	0	0	0	0	550	2	
11	0	0	0	0	546	1	
12	0	0	0	0	570	1	
13	0	0	0	0	558	1	
14	0	0	0	0	524	1	
15	0	0	0	0	495	1	
0	0	0	0	0	479	1	
1	0	0	0	0	462	1	
2	0	0	0	0	456	1	
3	0	0	0	0	459	1	
4	0	0	0	0	465	1	
5	0	0	0	0	469	1	
6	0	0	0	0	456	1	
7	0	0	0	0	466	1	
8	0	0	0	0	497	1	
9	0	0	0	0	523	1	
10	0	0	0	0	539	1	
11	0	0	0	0	555	1	
12	0	0	0	0	559	1	
13	0	0	0	0	559	1	
14	0	0	0	0	551	1	
15	0	0	0	0	547	1	
0	0	0	0	0	564	1	
1	0	0	0	0	555	1	
2	0	0	0	0	523	1	
3	0	0	0	0	497	1	
4	0	0	0	0	481	0	
5	0	0	0	0	465	1	
6	0	0	0	0	459	1	
7	0	0	0	0	459	1	
8	0	0	0	0	464	1	
9	0	0	0	0	467	1	
10	0	0	0	0	446	1	
11	0	0	0	0	462	1	
12	0	0	0	0	499	0	
13	0	0	0	0	529	1	
14	0	0	0	0	544	1	
15	0	0	0	0	556	1	
0	0	0	0	0	561	1	
1	0	0	0	0	561	1	
2	0	0	0	0	555	2	
3	0	0	0	0	543	1	
4	0	0	0	0	556	0	
5	0	0	0	0	551	1	
6	0	0	0	0	521	1	
7	0	0	0	0	499	1	
8	0	0	0	0	482	1	
9	0	0	0	0	464	1	
10	0	0	0	0	458	1	
11	0	0	0	0	457	0	
12	0	0	0	0	466	1	
13	0	0	0	0	473	0	
14	0	0	0	0	456	0	
15	0	0	0	0	467	1	
0	0	0	0	0	499	1	
1	0	0	0	0	527	1	
2	0	0	0	0	537	1	
3	0	0	0	0	547	1	
4	0	0	0	0	551	1	
5	0	0	0	0	555	1	
6	0	0	0	0	553	1	
7	0	0	0	0	552	1	
8	0	0	0	0	569	1	
9	0	0	0	0	562	1	
10	0	0	0	0	528	1	
11	0	0	0	0	499	1	
12	0	0	0	0	483	1	
13	0	0	0	0	464	1	
14	0	0	0	0	453	0	
15	0	0	0	0	455	0	
0	0	0	0	0	463	1	
1	0	0	0	0	469	1	
2	0	0	0	0	450	1	
3	0	0	0	0	457	0	
4	0	0	0	0	494	1	
5	0	0	0	0	528	1	
6	0	0	0	0	542	1	
7	0	0	0	0	553	0	
8	0	0	0	0	561	1	
9	0	0	0	0	560	1	
10	0	0	0	0	554	2	
11	0	0	0	0	550	1	
12	0	0	0	0	568	1	
13	0	0	0	0	558	1	
14	0	0	0	0	522	1	
15	0	0	0	0	497	0	
0	0	0	0	0	483	1	
1	0	0	0	0	464	1	
2	0	0	0	0	455	1	
3	0	0	0	0	451	0	
4	0	0	0	0	458	1	
5	0	0	0	0	467	1	
6	0	0	0	0	451	0	
7	0	0	0	0	462	1	
8	0	0	0	0	498	1	
9	0	0	0	0	526	1	
10	0	0	0	0	542	1	
11	0	0	0	0	555	1	
12	0	0	0	0	556	1	
13	0	0	0	0	556	1	
14	0	0	0	0	552	1	
15	0	0	0	0	548	1	
0	0	0	0	0	568	1	
1	0	0	0	0	561	1	
2	0	0	0	0	527	1	
3	0	0	0	0	501	1	
4	0	0	0	0	481	1	
5	0	0	0	0	461	0	
6	0	0	0	0	454	1	
7	0	0	0	0	458	1	
8	0	0	0	0	464	1	
9	0	0	0	0	465	0	
10	0	0	0	0	450	0	
11	0	0	0	0	463	1	
12	0	0	0	0	498	1	
13	0	0	0	0	526	1	
14	0	0	0	0	541	1	
15	0	0	0	0	555	1	
0	0	0	0	0	560	1	
1	0	0	0	0	558	1	
2	0	0	0	0	551	1	
3	0	0	0	0	549	1	
4	0	0	0	0	567	1	
5	0	0	0	0	558	1	
6	0	0	0	0	523	1	
7	0	0	0	0	494	1	
8	0	0	0	0	480	1	
9	0	0	0	0	468	1	
10	0	0	0	0	460	0	
11	0	0	0	0	461	1	
12	0	0	0	0	463	1	
13	0	0	0	0	465	1	
14	0	0	0	0	444	0	
15	0	0	0	0	458	1	
0	0	0	0	0	497	1	
1	0	0	0	0	526	1	
2	0	0	0	0	540	1	
3	0	0	0	0	556	1	
4	0	0	0	0	559	1	
5	0	0	0	0	555	1	
6	0	0	0	0	547	1	
7	0	0	0	0	544	1	
8	0	0	0	0	567	1	
9	0	0	0	0	560	1	
10	0	0	0	0	527	1	
11	0	0	0	0	500	1	
12	0	0	0	0	485	1	
13	0	0	0	0	466	1	
14	0	0	0	0	459	1	
15	0	0	0	0	459	1	
0	0	0	0	0	462	0	
1	0	0	0	0	458	1	
2	0	0	0	0	446	1	
3	0	0	0	0	460	0	
4	0	0	0	0	496	1	
5	0	0	0	0	524	1	
6	0	0	0	0	540	1	
7	0	0	0	0	551	0	
8	0	0	0	0	558	1	
9	0	0	0	0	564	1	
10	0	0	0	0	559	1	
11	0	0	0	0	557	1	
12	0	0	0	0	572	1	
13	0	0	0	0	558	1	
14	0	0	0	0	524	1	
15	0	0	0	0	490	0	
0	0	0	0	0	476	1	
1	0	0	0	0	465	1	
2	0	0	0	0	460	1	
3	0	0	0	0	457	0	
4	0	0	0	0	463	1	
5	0	0	0	0	467	1	
6	0	0	0	0	446	0	
7	0	0	0	0	462	0	
8	0	0	0	0	498	1	
9	0	0	0	0	531	1	
10	0	0	0	0	550	1	
11	0	0	0	0	561	1	
12	0	0	0	0	557	1	
13	0	0	0	0	553	1	
14	0	0	0	0	547	1	
15	0	0	0	0	547	1	
0	0	0	0	0	569	1	
1	0	0	0	0	560	1	
2	0	0	0	0	526	1	
3	0	0	0	0	495	1	
4	0	0	0	0	475	1	
5	0	0	0	0	459	0	
6	0	0	0	0	452	1	
7	0	0	0	0	456	1	
8	0	0	0	0	464	1	
9	0	0	0	0	466	1	
10	0	0	0	0	452	1	
11	0	0	0	0	468	1	
12	0	0	0	0	503	1	
13	0	0	0	0	529	1	
14	0	0	0	0	541	1	
15	0	0	0	0	553	1	
0	0	0	0	0	558	1	
1	0	0	0	0	555	1	
2	0	0	0	0	547	2	
3	0	0	0	0	548	1	
4	0	0	0	0	568	0	
5	0	0	0	0	557	1	
6	0	0	0	0	526	1	
7	0	0	0	0	499	1	
8	0	0	0	0	483	1	
9	0	0	0	0	464	1	
10	0	0	0	0	459	1	
11	0	0	0	0	457	1	
12	0	0	0	0	463	0	
13	0	0	0	0	466	1	
14	0	0	0	0	450	0	
15	0	0	0	0	464	1	
0	0	0	0	0	504	1	
1	0	0	0	0	532	1	
2	0	0	0	0	538	1	
3	0	0	0	0	551	1	
4	0	0	0	0	552	0	
5	0	0	0	0	552	1	
6	0	0	0	0	547	1	
7	0	0	0	0	545	1	
8	0	0	0	0	567	1	
9	0	0	0	0	556	1	
10	0	0	0	0	526	1	
11	0	0	0	0	498	1	
12	0	0	0	0	482	1	
13	0	0	0	0	462	1	
14	0	0	0	0	458	1	
15	0	0	0	0	461	1	
0	0	0	0	0	470	1	
1	0	0	0	0	464	1	
2	0	0	0	0	442	1	
3	0	0	0	0	455	0	
4	0	0	0	0	492	1	
5	0	0	0	0	528	1	
6	0	0	0	0	550	1	
7	0	0	0	0	559	1	
8	0	0	0	0	563	1	
9	0	0	0	0	558	1	
10	0	0	0	0	551	1	
11	0	0	0	0	549	1	
12	0	0	0	0	561	0	
13	0	0	0	0	549	1	
14	0	0	0	0	522	1	
15	0	0	0	0	505	1	
0	0	0	0	0	479	1	
1	0	0	0	0	462	1	
2	0	0	0	0	454	1	
3	0	0	0	0	457	1	
4	0	0	0	0	466	0	
5	0	0	0	0	473	1	
6	0	0	0	0	455	1	
7	0	0	0	0	465	1	
8	0	0	0	0	499	1	
9	0	0	0	0	526	1	
10	0	0	0	0	540	1	
11	0	0	0	0	553	1	
12	0	0	0	0	555	0	
13	0	0	0	0	552	1	
14	0	0	0	0	550	1	
15	0	0	0	0	551	1	
0	0	0	0	0	570	1	
1	0	0	0	0	553	1	
2	0	0	0	0	521	1	
3	0	0	0	0	496	1	
4	0	0	0	0	482	1	
5	0	0	0	0	467	0	
6	0	0	0	0	462	1	
7	0	0	0	0	462	1	
8	0	0	0	0	466	1	
9	0	0	0	0	469	1	
10	0	0	0	0	451	1	
11	0	0	0	0	463	1	
12	0	0	0	0	495	1	
13	0	0	0	0	517	1	
14	0	0	0	0	538	1	
15	0	0	0	0	555	1	
0	0	0	0	0	555	1	
1	0	0	0	0	560	1	
2	0	0	0	0	547	1	
3	0	0	0	0	542	1	
4	0	0	0	0	568	1	
5	0	0	0	0	560	1	
6	0	0	0	0	526	1	
7	0	0	0	0	490	0	
8	0	0	0	0	475	1	
9	0	0	0	0	463	1	
10	0	0	0	0	463	1	
11	0	0	0	0	469	1	
12	0	0	0	0	467	1	
13	0	0	0	0	462	1	
14	0	0	0	0	451	0	
15	0	0	0	0	466	0	
0	0	0	0	0	499	1	
1	0	0	0	0	523	1	
2	0	0	0	0	542	1	
3	0	0	0	0	546	1	
4	0	0	0	0	553	1	
5	0	0	0	0	560	1	
6	0	0	0	0	553	1	
7	0	0	0	0	553	0	
8	0	0	0	0	573	1	
9	0	0	0	0	557	1	
10	0	0	0	0	516	1	
11	0	0	0	0	497	1	
12	0	0	0	0	483	1	
13	0	0	0	0	462	1	
14	0	0	0	0	459	1	
15	0	0	0	0	473	1	
0	0	0	0	0	473	1	
1	0	0	0	0	462	1	
2	0	0	0	0	448	1	
3	0	0	0	0	459	0	
4	0	0	0	0	493	1	
5	0	0	0	0	521	1	
6	0	0	0	0	545	1	
7	0	0	0	0	559	1	
8	0	0	0	0	549	1	
9	0	0	0	0	542	1	
10	0	0	0	0	549	1	
11	0	0	0	0	556	1	
12	0	0	0	0	564	1	
13	0	0	0	0	547	1	
14	0	0	0	0	521	1	
15	0	0	0	0	504	1	
0	0	0	0	0	484	1	
1	0	0	0	0	466	1	
2	0	0	0	0	463	1	
3	0	0	0	0	462	1	
4	0	0	0	0	467	1	
5	0	0	0	0	463	0	
6	0	0	0	0	451	1	
7	0	0	0	0	468	1	
8	0	0	0	0	511	1	
9	0	0	0	0	536	1	
10	0	0	0	0	542	1	
11	0	0	0	0	547	1	
12	0	0	0	0	551	1	
13	0	0	0	0	553	1	
14	0	0	0	0	545	1	
15	0	0	0	0	540	1	
0	0	0	0	0	559	1	
1	0	0	0	0	549	1	
2	0	0	0	0	521	1	
3	0	0	0	0	491	1	
4	0	0	0	0	471	1	
5	0	0	0	0	454	0	
6	0	0	0	0	452	0	
7	0	0	0	0	460	1	
8	0	0	0	0	467	1	
9	0	0	0	0	470	1	
10	0	0	0	0	473	1	
11	0	0	0	0	492	1	
12	0	0	0	0	522	1	
13	0	0	0	0	537	1	
14	0	0	0	0	546	1	
15	0	0	0	0	564	1	
0	0	0	0	0	558	1	
1	0	0	0	0	546	1	
2	0	0	0	0	535	1	
3	0	0	0	0	530	1	
4	0	0	0	0	539	1	
5	0	0	0	0	524	1	
6	0	0	0	0	502	1	
7	0	0	0	0	485	1	
8	0	0	0	0	476	1	
9	0	0	0	0	479	1	
10	0	0	0	0	478	1	
11	0	0	0	0	477	1	
12	0	0	0	0	485	1	
13	0	0	0	0	485	1	
14	0	0	0	0	477	1	
15	0	0	0	0	494	0	
0	0	0	0	0	517	1	
1	0	0	0	0	527	1	
2	0	0	0	0	532	1	
3	0	0	0	0	538	1	
4	0	0	0	0	535	1	
5	0	0	0	0	534	1	
6	0	0	0	0	526	1	
7	0	0	0	0	526	0	
8	0	0	0	0	542	1	
9	0	0	0	0	532	1	
10	0	0	0	0	507	1	
11	0	0	0	0	497	1	
12	0	0	0	0	495	1	
13	0	0	0	0	479	1	
14	0	0	0	0	480	1	
15	0	0	0	0	488	0	
0	0	0	0	0	497	1	
1	0	0	0	0	479	1	
2	0	0	0	0	469	1	
3	0	0	0	0	497	1	
4	0	0	0	0	519	1	
5	0	0	0	0	520	1	
6	0	0	0	0	530	1	
7	0	0	0	0	539	1	
8	0	0	0	0	536	1	
9	0	0	0	0	528	1	
10	0	0	0	0	523	1	
11	0	0	0	0	524	1	
12	0	0	0	0	522	1	
13	0	0	0	0	518	1	
14	0	0	0	0	509	1	
15	0	0	0	0	502	1	
0	0	0	0	0	504	1	
1	0	0	0	0	493	1	
2	0	0	0	0	490	1	
3	0	0	0	0	489	1	
4	0	0	0	0	495	1	
5	0	0	0	0	493	1	
6	0	0	0	0	494	1	
7	0	0	0	0	503	1	
8	0	0	0	0	508	1	
9	0	0	0	0	512	1	
10	0	0	0	0	518	1	
11	0	0	0	0	522	1	
12	0	0	0	0	518	0	
13	0	0	0	0	526	1	
14	0	0	0	0	534	1	
15	0	0	0	0	543	1	
0	0	0	0	0	553	1	
1	0	0	0	0	540	1	
2	0	0	0	0	508	1	
3	0	0	0	0	471	1	
4	0	0	0	0	465	0	
5	0	0	0	0	471	1	
6	0	0	0	0	478	1	
7	0	0	0	0	489	1	
8	0	0	0	0	499	1	
9	0	0	0	0	494	1	
10	0	0	0	0	498	1	
11	0	0	0	0	512	1	
12	0	0	0	0	519	0	
13	0	0	0	0	525	1	
14	0	0	0	0	530	1	
15	0	0	0	0	524	1	
0	0	0	0	0	518	1	
1	0	0	0	0	524	1	
2	0	0	0	0	524	1	
3	0	0	0	0	512	1	
4	0	0	0	0	521	1	
5	0	0	0	0	516	1	
6	0	0	0	0	509	1	
7	0	0	0	0	505	1	
8	0	0	0	0	503	1	
9	0	0	0	0	497	1	
10	0	0	0	0	496	1	
11	0	0	0	0	508	1	
12	0	0	0	0	510	1	
13	0	0	0	0	498	1	
14	0	0	0	0	487	1	
15	0	0	0	0	496	1	
0	0	0	0	0	507	1	
1	0	0	0	0	518	1	
2	0	0	0	0	525	1	
3	0	0	0	0	526	1	
4	0	0	0	0	527	1	
5	0	0	0	0	522	1	
6	0	0	0	0	516	1	
7	0	0	0	0	510	1	
8	0	0	0	0	513	1	
9	0	0	0	0	526	1	
10	0	0	0	0	517	1	
11	0	0	0	0	504	1	
12	0	0	0	0	498	0	
13	0	0	0	0	495	1	
14	0	0	0	0	489	1	
15	0	0	0	0	483	1	
0	0	0	0	0	489	1	
1	0	0	0	0	488	1	
2	0	0	0	0	494	1	
3	0	0	0	0	512	1	
4	0	0	0	0	526	0	
5	0	0	0	0	526	1	
6	0	0	0	0	518	1	
7	0	0	0	0	517	1	
8	0	0	0	0	512	1	
9	0	0	0	0	520	1	
10	0	0	0	0	518	1	
11	0	0	0	0	516	1	
12	0	0	0	0	526	1	
13	0	0	0	0	512	1	
14	0	0	0	0	496	1	
15	0	0	0	0	494	1	
0	0	0	0	0	496	1	
1	0	0	0	0	502	1	
2	0	0	0	0	508	1	
3	0	0	0	0	515	1	
4	0	0	0	0	511	1	
5	0	0	0	0	506	1	
6	0	0	0	0	498	1	
7	0	0	0	0	499	1	
8	0	0	0	0	508	1	
9	0	0	0	0	519	1	
10	0	0	0	0	519	1	
11	0	0	0	0	509	1	
12	0	0	0	0	499	1	
13	0	0	0	0	504	1	
14	0	0	0	0	520	1	
15	0	0	0	0	528	1	
0	0	0	0	0	534	1	
1	0	0	0	0	536	1	
2	0	0	0	0	520	1	
3	0	0	0	0	507	1	
4	0	0	0	0	504	1	
5	0	0	0	0	500	1	
6	0	0	0	0	500	1	
7	0	0	0	0	498	0	
8	0	0	0	0	496	1	
9	0	0	0	0	495	1	
10	0	0	0	0	494	1	
11	0	0	0	0	482	1	
12	0	0	0	0	502	1	
13	0	0	0	0	518	1	
14	0	0	0	0	525	1	
15	0	0	0	0	524	0	
0	0	0	0	0	527	1	
1	0	0	0	0	518	1	
2	0	0	0	0	519	1	
3	0	0	0	0	517	1	
4	0	0	0	0	529	1	
5	0	0	0	0	526	1	
6	0	0	0	0	519	1	
7	0	0	0	0	500	1	
8	0	0	0	0	491	1	
9	0	0	0	0	486	1	
10	0	0	0	0	478	1	
11	0	0	0	0	482	1	
12	0	0	0	0	487	1	
13	0	0	0	0	497	1	
14	0	0	0	0	505	1	
15	0	0	0	0	513	1	
0	0	0	0	0	512	1	
1	0	0	0	0	501	1	
2	0	0	0	0	509	1	
3	0	0	0	0	511	1	
4	0	0	0	0	527	1	
5	0	0	0	0	536	1	
6	0	0	0	0	537	1	
7	0	0	0	0	543	1	
8	0	0	0	0	543	1	
9	0	0	0	0	531	1	
10	0	0	0	0	510	1	
11	0	0	0	0	507	1	
12	0	0	0	0	496	1	
13	0	0	0	0	497	1	
14	0	0	0	0	483	1	
15	0	0	0	0	474	1	
0	0	0	0	0	482	1	
1	0	0	0	0	488	1	
2	0	0	0	0	496	1	
3	0	0	0	0	504	1	
4	0	0	0	0	518	1	
5	0	0	0	0	522	1	
6	0	0	0	0	527	1	
7	0	0	0	0	529	1	
8	0	0	0	0	524	1	
9	0	0	0	0	520	1	
10	0	0	0	0	516	1	
11	0	0	0	0	519	1	
12	0	0	0	0	516	1	
13	0	0	0	0	501	1	
14	0	0	0	0	499	1	
15	0	0	0	0	494	1	
0	0	0	0	0	492	1	
1	0	0	0	0	498	1	
2	0	0	0	0	512	1	
3	0	0	0	0	511	1	
4	0	0	0	0	512	1	
5	0	0	0	0	514	1	
6	0	0	0	0	508	1	
7	0	0	0	0	502	1	
8	0	0	0	0	510	1	
9	0	0	0	0	506	1	
10	0	0	0	0	508	1	
11	0	0	0	0	504	1	
12	0	0	0	0	507	1	
13	0	0	0	0	522	1	
14	0	0	0	0	522	1	
15	0	0	0	0	520	1	
0	0	0	0	0	521	1	
1	0	0	0	0	524	1	
2	0	0	0	0	516	1	
3	0	0	0	0	507	1	
4	0	0	0	0	510	1	
5	0	0	0	0	495	1	
6	0	0	0	0	482	1	
7	0	0	0	0	492	1	
8	0	0	0	0	497	1	
9	0	0	0	0	497	1	
10	0	0	0	0	497	1	
11	0	0	0	0	501	1	
12	0	0	0	0	515	1	
13	0	0	0	0	513	1	
14	0	0	0	0	505	1	
15	0	0	0	0	511	0	
0	0	0	0	0	524	1	
1	0	0	0	0	523	1	
2	0	0	0	0	520	1	
3	0	0	0	0	512	1	
4	0	0	0	0	514	1	
5	0	0	0	0	515	1	
6	0	0	0	0	511	1	
7	0	0	0	0	516	0	
8	0	0	0	0	513	1	
9	0	0	0	0	508	1	
10	0	0	0	0	501	1	
11	0	0	0	0	497	1	
12	0	0	0	0	500	1	
13	0	0	0	0	508	1	
14	0	0	0	0	513	1	
15	0	0	0	0	520	1	
0	0	0	0	0	521	1	
1	0	0	0	0	510	1	
2	0	0	0	0	497	1	
3	0	0	0	0	508	1	
4	0	0	0	0	518	1	
5	0	0	0	0	514	1	
6	0	0	0	0	515	1	
7	0	0	0	0	512	1	
8	0	0	0	0	510	1	
9	0	0	0	0	510	1	
10	0	0	0	0	501	1	
11	0	0	0	0	503	1	
12	0	0	0	0	504	1	
13	0	0	0	0	506	1	
14	0	0	0	0	506	1	
15	0	0	0	0	504	1	
0	0	0	0	0	506	1	
1	0	0	0	0	497	1	
2	0	0	0	0	498	1	
3	0	0	0	0	500	1	
4	0	0	0	0	503	1	
5	0	0	0	0	504	1	
6	0	0	0	0	518	1	
7	0	0	0	0	526	1	
8	0	0	0	0	528	1	
9	0	0	0	0	516	1	
10	0	0	0	0	520	1	
11	0	0	0	0	531	1	
12	0	0	0	0	520	0	
13	0	0	0	0	511	1	
14	0	0	0	0	521	1	
15	0	0	0	0	504	1	
0	0	0	0	0	506	1	
1	0	0	0	0	499	1	
2	0	0	0	0	494	1	
3	0	0	0	0	496	1	
4	0	0	0	0	494	0	
5	0	0	0	0	491	1	
6	0	0	0	0	495	1	
7	0	0	0	0	490	1	
8	0	0	0	0	493	1	
9	0	0	0	0	496	1	
10	0	0	0	0	519	1	
11	0	0	0	0	538	1	
12	0	0	0	0	554	1	
13	0	0	0	0	541	1	
14	0	0	0	0	530	1	
15	0	0	0	0	513	1	
0	0	0	0	0	510	1	
1	0	0	0	0	504	1	
2	0	0	0	0	492	1	
3	0	0	0	0	484	1	
4	0	0	0	0	497	1	
5	0	0	0	0	519	1	
6	0	0	0	0	512	1	
7	0	0	0	0	502	1	
8	0	0	0	0	497	1	
9	0	0	0	0	503	1	
10	0	0	0	0	499	1	
11	0	0	0	0	499	1	
12	0	0	0	0	518	1	
13	0	0	0	0	529	1	
14	0	0	0	0	514	1	
15	0	0	0	0	504	1	
0	0	0	0	0	507	1	
1	0	0	0	0	520	1	
2	0	0	0	0	514	1	
3	0	0	0	0	506	1	
4	0	0	0	0	499	0	
5	0	0	0	0	505	1	
6	0	0	0	0	511	1	
7	0	0	0	0	510	1	
8	0	0	0	0	513	1	
9	0	0	0	0	512	1	
10	0	0	0	0	521	1	
11	0	0	0	0	516	1	
12	0	0	0	0	519	0	
13	0	0	0	0	505	1	
14	0	0	0	0	499	1	
15	0	0	0	0	496	1	
0	0	0	0	0	500	1	
1	0	0	0	0	499	1	
2	0	0	0	0	490	1	
3	0	0	0	0	498	1	
4	0	0	0	0	518	0	
5	0	0	0	0	537	1	
6	0	0	0	0	526	1	
7	0	0	0	0	520	1	
8	0	0	0	0	504	1	
9	0	0	0	0	523	1	
10	0	0	0	0	517	1	
11	0	0	0	0	518	1	
12	0	0	0	0	506	1	
13	0	0	0	0	491	1	
14	0	0	0	0	486	1	
15	0	0	0	0	497	1	
0	0	0	0	0	514	1	
1	0	0	0	0	517	1	
2	0	0	0	0	511	1	
3	0	0	0	0	514	1	
4	0	0	0	0	514	1	
5	0	0	0	0	496	1	
6	0	0	0	0	495	1	
7	0	0	0	0	514	1	
8	0	0	0	0	530	1	
9	0	0	0	0	524	1	
10	0	0	0	0	536	1	
11	0	0	0	0	532	1	
12	0	0	0	0	525	1	
13	0	0	0	0	515	1	
14	0	0	0	0	496	1	
15	0	0	0	0	480	0	
0	0	0	0	0	497	1	
1	0	0	0	0	504	1	
2	0	0	0	0	503	1	
3	0	0	0	0	516	1	
4	0	0	0	0	499	1	
5	0	0	0	0	495	1	
6	0	0	0	0	487	1	
7	0	0	0	0	512	0	
8	0	0	0	0	514	1	
9	0	0	0	0	514	1	
10	0	0	0	0	500	1	
11	0	0	0	0	503	1	
12	0	0	0	0	512	1	
13	0	0	0	0	521	1	
14	0	0	0	0	524	1	
15	0	0	0	0	521	0	
0	0	0	0	0	512	1	
1	0	0	0	0	513	1	
2	0	0	0	0	516	1	
3	0	0	0	0	510	1	
4	0	0	0	0	512	1	
5	0	0	0	0	501	1	
6	0	0	0	0	507	1	
7	0	0	0	0	494	1	
8	0	0	0	0	486	1	
9	0	0	0	0	493	1	
10	0	0	0	0	508	1	
11	0	0	0	0	507	1	
12	0	0	0	0	504	1	
13	0	0	0	0	502	1	
14	0	0	0	0	517	1	
15	0	0	0	0	519	1	
0	0	0	0	0	520	1	
1	0	0	0	0	524	1	
2	0	0	0	0	511	1	
3	0	0	0	0	505	1	
4	0	0	0	0	525	1	
5	0	0	0	0	529	1	
6	0	0	0	0	516	1	
7	0	0	0	0	513	1	
8	0	0	0	0	510	1	
9	0	0	0	0	513	1	
10	0	0	0	0	517	1	
11	0	0	0	0	511	1	
12	0	0	0	0	504	1	
13	0	0	0	0	507	1	
14	0	0	0	0	495	1	
15	0	0	0	0	495	1	
0	0	0	0	0	496	1	
1	0	0	0	0	494	1	
2	0	0	0	0	502	1	
3	0	0	0	0	524	1	
4	0	0	0	0	527	1	
5	0	0	0	0	533	1	
6	0	0	0	0	537	1	
7	0	0	0	0	495	1	
8	0	0	0	0	470	1	
9	0	0	0	0	499	1	
10	0	0	0	0	529	1	
11	0	0	0	0	525	1	
12	0	0	0	0	516	1	
13	0	0	0	0	510	1	
14	0	0	0	0	496	1	
15	0	0	0	0	487	1	
0	0	0	0	0	496	1	
1	0	0	0	0	502	1	
2	0	0	0	0	502	1	
3	0	0	0	0	497	1	
4	0	0	0	0	499	1	
5	0	0	0	0	499	1	
6	0	0	0	0	500	1	
7	0	0	0	0	513	1	
8	0	0	0	0	528	1	
9	0	0	0	0	523	1	
10	0	0	0	0	532	1	
11	0	0	0	0	531	1	
12	0	0	0	0	521	1	
13	0	0	0	0	511	1	
14	0	0	0	0	519	1	
15	0	0	0	0	527	1	
0	0	0	0	0	498	1	
1	0	0	0	0	484	1	
2	0	0	0	0	497	1	
3	0	0	0	0	487	1	
4	0	0	0	0	476	1	
5	0	0	0	0	493	1	
6	0	0	0	0	519	1	
7	0	0	0	0	534	0	
8	0	0	0	0	515	1	
9	0	0	0	0	501	1	
10	0	0	0	0	510	1	
11	0	0	0	0	539	1	
12	0	0	0	0	545	1	
13	0	0	0	0	543	1	
14	0	0	0	0	530	1	
15	0	0	0	0	504	0	
0	0	0	0	0	536	1	
1	0	0	0	0	508	1	
2	0	0	0	0	455	1	
3	0	0	0	0	456	1	
4	0	0	0	0	480	1	
5	0	0	0	0	485	1	
6	0	0	0	0	496	1	
7	0	0	0	0	512	0	
8	0	0	0	0	526	1	
9	0	0	0	0	526	1	
10	0	0	0	0	513	1	
11	0	0	0	0	506	1	
12	0	0	0	0	521	1	
13	0	0	0	0	530	1	
14	0	0	0	0	527	1	
15	0	0	0	0	531	1	
0	0	0	0	0	528	1	
1	0	0	0	0	522	1	
2	0	0	0	0	504	1	
3	0	0	0	0	504	1	
4	0	0	0	0	502	1	
5	0	0	0	0	525	1	
6	0	0	0	0	525	1	
7	0	0	0	0	518	1	
8	0	0	0	0	489	1	
9	0	0	0	0	471	1	
10	0	0	0	0	468	1	
11	0	0	0	0	480	1	
12	0	0	0	0	512	1	
13	0	0	0	0	511	1	
14	0	0	0	0	496	1	
15	0	0	0	0	502	1	
0	0	0	0	0	493	1	
1	0	0	0	0	491	1	
2	0	0	0	0	497	1	
3	0	0	0	0	516	1	
4	0	0	0	0	540	0	
5	0	0	0	0	562	1	
6	0	0	0	0	546	1	
7	0	0	0	0	514	1	
8	0	0	0	0	512	1	
9	0	0	0	0	509	1	
10	0	0	0	0	510	1	
11	0	0	0	0	511	1	
12	0	0	0	0	515	0	
13	0	0	0	0	507	1	
14	0	0	0	0	515	1	
15	0	0	0	0	511	1	
0	0	0	0	0	511	1	
1	0	0	0	0	510	1	
2	0	0	0	0	490	1	
3	0	0	0	0	457	0	
4	0	0	0	0	472	0	
5	0	0	0	0	504	1	
6	0	0	0	0	527	1	
7	0	0	0	0	514	1	
8	0	0	0	0	481	1	
9	0	0	0	0	510	1	
10	0	0	0	0	534	1	
11	0	0	0	0	542	1	
12	0	0	0	0	550	1	
13	0	0	0	0	550	1	
14	0	0	0	0	511	1	
15	0	0	0	0	492	1	
0	0	0	0	0	466	1	
1	0	0	0	0	489	1	
2	0	0	0	0	502	1	
3	0	0	0	0	501	1	
4	0	0	0	0	515	1	
5	0	0	0	0	519	1	
6	0	0	0	0	511	1	
7	0	0	0	0	508	1	
8	0	0	0	0	506	1	
9	0	0	0	0	501	1	
10	0	0	0	0	499	1	
11	0	0	0	0	499	1	
12	0	0	0	0	515	0	
13	0	0	0	0	529	1	
14	0	0	0	0	535	1	
15	0	0	0	0	552	1	
0	0	0	0	0	527	1	
1	0	0	0	0	499	1	
2	0	0	0	0	512	1	
3	0	0	0	0	521	1	
4	0	0	0	0	505	0	
5	0	0	0	0	488	1	
6	0	0	0	0	484	1	
7	0	0	0	0	494	1	
8	0	0	0	0	512	1	
9	0	0	0	0	507	1	
10	0	0	0	0	457	1	
11	0	0	0	0	474	1	
12	0	0	0	0	512	0	
13	0	0	0	0	524	1	
14	0	0	0	0	533	1	
15	0	0	0	0	513	1	
0	0	0	0	0	501	1	
1	0	0	0	0	511	1	
2	0	0	0	0	543	1	
3	0	0	0	0	555	1	
4	0	0	0	0	562	1	
5	0	0	0	0	515	1	
6	0	0	0	0	486	1	
7	0	0	0	0	481	1	
8	0	0	0	0	494	1	
9	0	0	0	0	499	1	
10	0	0	0	0	505	1	
11	0	0	0	0	508	1	
12	0	0	0	0	501	1	
13	0	0	0	0	481	0	
14	0	0	0	0	478	1	
15	0	0	0	0	492	1	
0	0	0	0	0	497	1	
1	0	0	0	0	506	1	
2	0	0	0	0	530	1	
3	0	0	0	0	514	1	
4	0	0	0	0	530	1	
5	0	0	0	0	560	1	
6	0	0	0	0	572	1	
7	0	0	0	0	531	0	
8	0	0	0	0	488	1	
9	0	0	0	0	494	1	
10	0	0	0	0	507	1	
11	0	0	0	0	515	1	
12	0	0	0	0	518	1	
13	0	0	0	0	499	1	
14	0	0	0	0	463	1	
15	0	0	0	0	468	0	
0	0	0	0	0	491	1	
1	0	0	0	0	505	1	
2	0	0	0	0	516	1	
3	0	0	0	0	510	1	
4	0	0	0	0	503	1	
5	0	0	0	0	504	1	
6	0	0	0	0	518	1	
7	0	0	0	0	522	0	
8	0	0	0	0	521	1	
9	0	0	0	0	517	1	
10	0	0	0	0	549	1	
11	0	0	0	0	545	1	
12	0	0	0	0	537	1	
13	0	0	0	0	547	1	
14	0	0	0	0	499	1	
15	0	0	0	0	441	0	
0	0	0	0	0	465	0	
1	0	0	0	0	486	1	
2	0	0	0	0	499	1	
3	0	0	0	0	527	1	
4	0	0	0	0	517	1	
5	0	0	0	0	490	1	
6	0	0	0	0	483	1	
7	0	0	0	0	490	1	
8	0	0	0	0	523	1	
9	0	0	0	0	521	1	
10	0	0	0	0	508	1	
11	0	0	0	0	513	1	
12	0	0	0	0	494	1	
13	0	0	0	0	478	1	
14	0	0	0	0	495	1	
15	0	0	0	0	545	1	
0	0	0	0	0	558	1	
1	0	0	0	0	548	1	
2	0	0	0	0	539	1	
3	0	0	0	0	529	1	
4	0	0	0	0	513	1	
5	0	0	0	0	512	1	
6	0	0	0	0	487	1	
7	0	0	0	0	499	1	
8	0	0	0	0	515	1	
9	0	0	0	0	478	1	
10	0	0	0	0	476	1	
11	0	0	0	0	493	1	
12	0	0	0	0	457	1	
13	0	0	0	0	456	1	
14	0	0	0	0	503	1	
15	0	0	0	0	516	1	
0	0	0	0	0	555	1	
1	0	0	0	0	568	1	
2	0	0	0	0	535	1	
3	0	0	0	0	520	1	
4	0	0	0	0	519	1	
5	0	0	0	0	530	1	
6	0	0	0	0	523	1	
7	0	0	0	0	514	1	
8	0	0	0	0	498	1	
9	0	0	0	0	487	1	
10	0	0	0	0	493	1	
11	0	0	0	0	484	1	
12	0	0	0	0	507	1	
13	0	0	0	0	524	1	
14	0	0	0	0	529	1	
15	0	0	0	0	511	1	
0	0	0	0	0	503	1	
1	0	0	0	0	510	1	
2	0	0	0	0	506	1	
3	0	0	0	0	507	1	
4	0	0	0	0	529	1	
5	0	0	0	0	529	1	
6	0	0	0	0	536	1	
7	0	0	0	0	549	1	
8	0	0	0	0	522	1	
9	0	0	0	0	507	1	
10	0	0	0	0	439	1	
11	0	0	0	0	423	0	
12	0	0	0	0	469	0	
13	0	0	0	0	481	1	
14	0	0	0	0	491	1	
15	0	0	0	0	532	0	
0	0	0	0	0	541	1	
1	0	0	0	0	551	1	
2	0	0	0	0	521	1	
3	0	0	0	0	482	1	
4	0	0	0	0	479	1	
5	0	0	0	0	521	1	
6	0	0	0	0	553	1	
7	0	0	0	0	539	0	
8	0	0	0	0	493	1	
9	0	0	0	0	496	1	
10	0	0	0	0	500	1	
11	0	0	0	0	489	1	
12	0	0	0	0	504	1	
13	0	0	0	0	521	1	
14	0	0	0	0	523	1	
15	0	0	0	0	534	0	
0	0	0	0	0	531	1	
1	0	0	0	0	515	1	
2	0	0	0	0	496	1	
3	0	0	0	0	490	1	
4	0	0	0	0	467	1	
5	0	0	0	0	479	0	
6	0	0	0	0	517	1	
7	0	0	0	0	546	1	
8	0	0	0	0	568	1	
9	0	0	0	0	568	1	
10	0	0	0	0	534	1	
11	0	0	0	0	465	1	
12	0	0	0	0	458	1	
13	0	0	0	0	483	0	
14	0	0	0	0	495	1	
15	0	0	0	0	505	1	
0	0	0	0	0	534	1	
1	0	0	0	0	532	1	
2	0	0	0	0	491	1	
3	0	0	0	0	480	1	
4	0	0	0	0	483	1	
5	0	0	0	0	480	0	
6	0	0	0	0	499	1	
7	0	0	0	0	536	1	
8	0	0	0	0	570	1	
9	0	0	0	0	580	1	
10	0	0	0	0	558	2	
11	0	0	0	0	478	1	
12	0	0	0	0	480	0	
13	0	0	0	0	480	1	
14	0	0	0	0	461	0	
15	0	0	0	0	498	1	
0	0	0	0	0	509	1	
1	0	0	0	0	492	1	
2	0	0	0	0	529	1	
3	0	0	0	0	548	1	
4	0	0	0	0	532	0	
5	0	0	0	0	508	1	
6	0	0	0	0	519	1	
7	0	0	0	0	484	1	
8	0	0	0	0	452	0	
9	0	0	0	0	476	1	
10	0	0	0	0	519	1	
11	0	0	0	0	534	1	
12	0	0	0	0	538	0	
13	0	0	0	0	517	1	
14	0	0	0	0	496	1	
15	0	0	0	0	498	1	
0	0	0	0	0	551	1	
1	0	0	0	0	556	1	
2	0	0	0	0	534	1	
3	0	0	0	0	537	1	
4	0	0	0	0	447	0	
5	0	0	0	0	394	0	
6	0	0	0	0	450	1	
7	0	0	0	0	495	1	
8	0	0	0	0	495	1	
9	0	0	0	0	551	1	
10	0	0	0	0	565	1	
11	0	0	0	0	547	1	
12	0	0	0	0	542	1	
13	0	0	0	0	530	1	
14	0	0	0	0	514	1	
15	0	0	0	0	503	1	
0	0	0	0	0	492	1	
1	0	0	0	0	466	1	
2	0	0	0	0	460	1	
3	0	0	0	0	503	1	
4	0	0	0	0	552	1	
5	0	0	0	0	558	1	
6	0	0	0	0	561	1	
7	0	0	0	0	537	1	
8	0	0	0	0	503	1	
9	0	0	0	0	458	0	
10	0	0	0	0	467	1	
11	0	0	0	0	512	1	
12	0	0	0	0	515	0	
13	0	0	0	0	507	1	
14	0	0	0	0	508	1	
15	0	0	0	0	513	1	
0	0	0	0	0	518	1	
1	0	0	0	0	498	1	
2	0	0	0	0	476	1	
3	0	0	0	0	492	1	
4	0	0	0	0	499	0	
5	0	0	0	0	502	1	
6	0	0	0	0	550	1	
7	0	0	0	0	580	1	
8	0	0	0	0	526	1	
9	0	0	0	0	450	1	
10	0	0	0	0	449	1	
11	0	0	0	0	494	1	
12	0	0	0	0	499	1	
13	0	0	0	0	521	1	
14	0	0	0	0	526	1	
15	0	0	0	0	535	1	
0	0	0	0	0	528	1	
1	0	0	0	0	499	1	
2	0	0	0	0	512	1	
3	0	0	0	0	508	1	
4	0	0	0	0	550	1	
5	0	0	0	0	580	1	
6	0	0	0	0	508	1	
7	0	0	0	0	473	1	
8	0	0	0	0	470	1	
9	0	0	0	0	428	0	
10	0	0	0	0	465	1	
11	0	0	0	0	502	1	
12	0	0	0	0	479	1	
13	0	0	0	0	513	1	
14	0	0	0	0	547	1	
15	0	0	0	0	524	1	
0	0	0	0	0	511	1	
1	0	0	0	0	543	1	
2	0	0	0	0	561	2	
3	0	0	0	0	548	1	
4	0	0	0	0	530	1	
5	0	0	0	0	480	1	
6	0	0	0	0	463	1	
7	0	0	0	0	487	0	
8	0	0	0	0	496	1	
9	0	0	0	0	535	1	
10	0	0	0	0	564	2	
11	0	0	0	0	535	1	
12	0	0	0	0	501	1	
13	0	0	0	0	514	1	
14	0	0	0	0	541	1	
15	0	0	0	0	540	0	
0	0	0	0	0	511	1	
1	0	0	0	0	441	0	
2	0	0	0	0	451	1	
3	0	0	0	0	477	1	
4	0	0	0	0	504	1	
5	0	0	0	0	515	1	
6	0	0	0	0	505	1	
7	0	0	0	0	512	1	
8	0	0	0	0	510	1	
9	0	0	0	0	517	1	
10	0	0	0	0	541	1	
11	0	0	0	0	554	1	
12	0	0	0	0	544	1	
13	0	0	0	0	502	1	
14	0	0	0	0	483	1	
15	0	0	0	0	532	1	
0	0	0	0	0	543	1	
1	0	0	0	0	566	1	
2	0	0	0	0	490	1	
3	0	0	0	0	432	0	
4	0	0	0	0	420	0	
5	0	0	0	0	408	0	
6	0	0	0	0	419	0	
7	0	0	0	0	489	1	
8	0	0	0	0	561	1	
9	0	0	0	0	526	1	
10	0	0	0	0	502	1	
11	0	0	0	0	541	1	
12	0	0	0	0	564	1	
13	0	0	0	0	575	1	
14	0	0	0	0	563	1	
15	0	0	0	0	540	1	
0	0	0	0	0	526	1	
1	0	0	0	0	534	1	
2	0	0	0	0	509	1	
3	0	0	0	0	480	1	
4	0	0	0	0	479	1	
5	0	0	0	0	479	1	
6	0	0	0	0	529	1	
7	0	0	0	0	551	1	
8	0	0	0	0	515	1	
9	0	0	0	0	468	1	
10	0	0	0	0	463	0	
11	0	0	0	0	476	1	
12	0	0	0	0	485	1	
13	0	0	0	0	504	1	
14	0	0	0	0	536	1	
15	0	0	0	0	595	1	
0	0	0	0	0	564	1	
1	0	0	0	0	487	1	
2	0	0	0	0	353	0	
3	0	0	0	0	415	0	
4	0	0	0	0	500	1	
5	0	0	0	0	544	1	
6	0	0	0	0	562	1	
7	0	0	0	0	551	1	
8	0	0	0	0	517	1	
9	0	0	0	0	488	1	
10	0	0	0	0	490	1	
11	0	0	0	0	518	1	
12	0	0	0	0	547	1	
13	0	0	0	0	535	1	
14	0	0	0	0	508	1	
15	0	0	0	0	537	1	
0	0	0	0	0	601	1	
1	0	0	0	0	597	1	
2	0	0	0	0	573	2	
3	0	0	0	0	483	1	
4	0	0	0	0	326	0	
5	0	0	0	0	355	0	
6	0	0	0	0	456	0	
7	0	0	0	0	525	1	
8	0	0	0	0	531	1	
9	0	0	0	0	535	1	
10	0	0	0	0	492	1	
11	0	0	0	0	451	1	
12	0	0	0	0	488	1	
13	0	0	0	0	537	1	
14	0	0	0	0	548	1	
15	0	0	0	0	515	0	
0	0	0	0	0	511	1	
1	0	0	0	0	541	1	
2	0	0	0	0	578	2	
3	0	0	0	0	582	1	
4	0	0	0	0	561	1	
5	0	0	0	0	526	1	
6	0	0	0	0	459	0	
7	0	0	0	0	486	0	
8	0	0	0	0	532	1	
9	0	0	0	0	497	1	
10	0	0	0	0	469	1	
11	0	0	0	0	489	1	
12	0	0	0	0	495	1	
13	0	0	0	0	495	1	
14	0	0	0	0	513	1	
15	0	0	0	0	518	1	
0	0	0	0	0	556	1	
1	0	0	0	0	584	1	
2	0	0	0	0	538	1	
3	0	0	0	0	479	1	
4	0	0	0	0	479	1	
5	0	0	0	0	498	1	
6	0	0	0	0	465	1	
7	0	0	0	0	455	0	
8	0	0	0	0	503	1	
9	0	0	0	0	500	1	
10	0	0	0	0	531	1	
11	0	0	0	0	555	1	
12	0	0	0	0	511	1	
13	0	0	0	0	453	0	
14	0	0	0	0	462	1	
15	0	0	0	0	476	1	
0	0	0	0	0	524	1	
1	0	0	0	0	547	1	
2	0	0	0	0	530	1	
3	0	0	0	0	522	1	
4	0	0	0	0	536	0	
5	0	0	0	0	519	1	
6	0	0	0	0	443	0	
7	0	0	0	0	412	0	
8	0	0	0	0	458	0	
9	0	0	0	0	513	1	
10	0	0	0	0	540	1	
11	0	0	0	0	539	1	
12	0	0	0	0	551	0	
13	0	0	0	0	583	1	
14	0	0	0	0	558	1	
15	0	0	0	0	529	1	
0	0	0	0	0	529	1	
1	0	0	0	0	514	1	
2	0	0	0	0	508	1	
3	0	0	0	0	520	1	
4	0	0	0	0	527	0	
5	0	0	0	0	510	1	
6	0	0	0	0	508	1	
7	0	0	0	0	538	1	
8	0	0	0	0	545	1	
9	0	0	0	0	558	1	
10	0	0	0	0	561	1	
11	0	0	0	0	491	1	
12	0	0	0	0	431	0	
13	0	0	0	0	412	0	
14	0	0	0	0	442	0	
15	0	0	0	0	491	1	
0	0	0	0	0	485	1	
1	0	0	0	0	488	1	
2	0	0	0	0	447	1	
3	0	0	0	0	501	1	
4	0	0	0	0	525	1	
5	0	0	0	0	499	1	
6	0	0	0	0	498	1	
7	0	0	0	0	537	1	
8	0	0	0	0	534	1	
9	0	0	0	0	507	1	
10	0	0	0	0	496	1	
11	0	0	0	0	487	1	
12	0	0	0	0	494	1	
13	0	0	0	0	491	1	
14	0	0	0	0	481	1	
15	0	0	0	0	507	1	
0	0	0	0	0	513	1	
1	0	0	0	0	514	1	
2	0	0	0	0	499	1	
3	0	0	0	0	498	1	
4	0	0	0	0	569	0	
5	0	0	0	0	576	1	
6	0	0	0	0	534	1	
7	0	0	0	0	531	1	
8	0	0	0	0	529	1	
9	0	0	0	0	535	1	
10	0	0	0	0	529	1	
11	0	0	0	0	525	1	
12	0	0	0	0	536	0	
13	0	0	0	0	571	1	
14	0	0	0	0	532	1	
15	0	0	0	0	487	1	
0	0	0	0	0	460	1	
1	0	0	0	0	411	0	
2	0	0	0	0	463	1	
3	0	0	0	0	492	1	
4	0	0	0	0	496	0	
5	0	0	0	0	474	1	
6	0	0	0	0	452	0	
7	0	0	0	0	491	1	
8	0	0	0	0	557	1	
9	0	0	0	0	574	1	
10	0	0	0	0	534	1	
11	0	0	0	0	503	1	
12	0	0	0	0	535	1	
13	0	0	0	0	543	1	
14	0	0	0	0	526	1	
15	0	0	0	0	564	1	
0	0	0	0	0	560	1	
1	0	0	0	0	504	1	
2	0	0	0	0	483	1	
3	0	0	0	0	437	0	
4	0	0	0	0	376	0	
5	0	0	0	0	437	0	
6	0	0	0	0	512	1	
7	0	0	0	0	568	1	
8	0	0	0	0	593	1	
9	0	0	0	0	535	1	
10	0	0	0	0	523	1	
11	0	0	0	0	535	1	
12	0	0	0	0	563	1	
13	0	0	0	0	535	1	
14	0	0	0	0	435	0	
15	0	0	0	0	471	0	
0	0	0	0	0	521	1	
1	0	0	0	0	505	1	
2	0	0	0	0	504	1	
3	0	0	0	0	474	1	
4	0	0	0	0	487	1	
5	0	0	0	0	517	1	
6	0	0	0	0	512	1	
7	0	0	0	0	526	0	
8	0	0	0	0	543	1	
9	0	0	0	0	556	1	
10	0	0	0	0	556	1	
11	0	0	0	0	546	1	
12	0	0	0	0	555	1	
13	0	0	0	0	519	1	
14	0	0	0	0	492	1	
15	0	0	0	0	448	0	
0	0	0	0	0	389	0	
1	0	0	0	0	398	0	
2	0	0	0	0	487	1	
3	0	0	0	0	545	1	
4	0	0	0	0	545	1	
5	0	0	0	0	509	1	
6	0	0	0	0	513	1	
7	0	0	0	0	522	1	
8	0	0	0	0	505	1	
9	0	0	0	0	507	1	
10	0	0	0	0	480	1	
11	0	0	0	0	504	1	
12	0	0	0	0	523	1	
13	0	0	0	0	522	1	
14	0	0	0	0	555	1	
15	0	0	0	0	553	1	
0	0	0	0	0	537	1	
1	0	0	0	0	524	1	
2	0	0	0	0	459	1	
3	0	0	0	0	499	1	
4	0	0	0	0	529	1	
5	0	0	0	0	515	1	
6	0	0	0	0	552	1	
7	0	0	0	0	516	1	
8	0	0	0	0	423	0	
9	0	0	0	0	450	0	
10	0	0	0	0	489	1	
11	0	0	0	0	526	1	
12	0	0	0	0	534	1	
13	0	0	0	0	491	1	
14	0	0	0	0	448	0	
15	0	0	0	0	504	1	
0	0	0	0	0	568	1	
1	0	0	0	0	536	1	
2	0	0	0	0	497	1	
3	0	0	0	0	469	1	
4	0	0	0	0	476	1	
5	0	0	0	0	531	1	
6	0	0	0	0	539	1	
7	0	0	0	0	519	1	
8	0	0	0	0	487	1	
9	0	0	0	0	502	1	
10	0	0	0	0	542	1	
11	0	0	0	0	542	1	
12	0	0	0	0	508	1	
13	0	0	0	0	525	1	
14	0	0	0	0	540	1	
15	0	0	0	0	545	1	
0	0	0	0	0	544	1	
1	0	0	0	0	528	1	
2	0	0	0	0	505	1	
3	0	0	0	0	501	1	
4	0	0	0	0	482	1	
5	0	0	0	0	483	1	
6	0	0	0	0	477	1	
7	0	0	0	0	505	1	
8	0	0	0	0	513	1	
9	0	0	0	0	501	1	
10	0	0	0	0	492	1	
11	0	0	0	0	498	1	
12	0	0	0	0	495	1	
13	0	0	0	0	523	1	
14	0	0	0	0	518	1	
15	0	0	0	0	497	1	
0	0	0	0	0	518	1	
1	0	0	0	0	514	1	
2	0	0	0	0	515	1	
3	0	0	0	0	547	1	
4	0	0	0	0	541	1	
5	0	0	0	0	503	1	
6	0	0	0	0	507	1	
7	0	0	0	0	546	0	
8	0	0	0	0	554	1	
9	0	0	0	0	515	1	
10	0	0	0	0	481	1	
11	0	0	0	0	449	0	
12	0	0	0	0	352	0	
13	0	0	0	0	379	0	
14	0	0	0	0	469	1	
15	0	0	0	0	518	0	
0	0	0	0	0	514	1	
1	0	0	0	0	533	1	
2	0	0	0	0	555	1	
3	0	0	0	0	574	1	
4	0	0	0	0	566	1	
5	0	0	0	0	513	1	
6	0	0	0	0	529	1	
7	0	0	0	0	551	0	
8	0	0	0	0	580	1	
9	0	0	0	0	579	1	
10	0	0	0	0	538	1	
11	0	0	0	0	459	1	
12	0	0	0	0	406	0	
13	0	0	0	0	441	0	
14	0	0	0	0	462	1	
15	0	0	0	0	464	1	
0	0	0	0	0	475	1	
1	0	0	0	0	462	1	
2	0	0	0	0	490	1	
3	0	0	0	0	532	1	
4	0	0	0	0	565	1	
5	0	0	0	0	570	1	
6	0	0	0	0	578	1	
7	0	0	0	0	553	1	
8	0	0	0	0	527	1	
9	0	0	0	0	529	1	
10	0	0	0	0	542	1	
11	0	0	0	0	528	1	
12	0	0	0	0	504	1	
13	0	0	0	0	486	0	
14	0	0	0	0	499	1	
15	0	0	0	0	509	1	
0	0	0	0	0	490	1	
1	0	0	0	0	478	1	
2	0	0	0	0	485	1	
3	0	0	0	0	509	1	
4	0	0	0	0	519	0	
5	0	0	0	0	514	1	
6	0	0	0	0	505	1	
7	0	0	0	0	492	1	
8	0	0	0	0	488	1	
9	0	0	0	0	507	1	
10	0	0	0	0	517	1	
11	0	0	0	0	512	1	
12	0	0	0	0	524	0	
13	0	0	0	0	513	1	
14	0	0	0	0	500	1	
15	0	0	0	0	497	1	
0	0	0	0	0	479	1	
1	0	0	0	0	506	1	
2	0	0	0	0	527	1	
3	0	0	0	0	545	1	
4	0	0	0	0	526	1	
5	0	0	0	0	508	1	
6	0	0	0	0	503	1	
7	0	0	0	0	509	1	
8	0	0	0	0	515	1	
9	0	0	0	0	523	1	
10	0	0	0	0	524	1	
11	0	0	0	0	518	1	
12	0	0	0	0	514	1	
13	0	0	0	0	517	1	
14	0	0	0	0	520	1	
15	0	0	0	0	525	1	
0	0	0	0	0	517	1	
1	0	0	0	0	502	1	
2	0	0	0	0	494	1	
3	0	0	0	0	489	1	
4	0	0	0	0	478	1	
5	0	0	0	0	480	1	
6	0	0	0	0	494	1	
7	0	0	0	0	501	1	
8	0	0	0	0	489	1	
9	0	0	0	0	488	1	
10	0	0	0	0	503	1	
11	0	0	0	0	512	1	
12	0	0	0	0	522	0	
13	0	0	0	0	513	1	
14	0	0	0	0	499	1	
15	0	0	0	0	491	1	
0	0	0	0	0	503	1	
1	0	0	0	0	536	1	
2	0	0	0	0	564	2	
3	0	0	0	0	577	1	
4	0	0	0	0	553	0	
5	0	0	0	0	503	1	
6	0	0	0	0	467	1	
7	0	0	0	0	465	1	
8	0	0	0	0	473	1	
9	0	0	0	0	491	1	
10	0	0	0	0	508	1	
11	0	0	0	0	521	1	
12	0	0	0	0	508	0	
13	0	0	0	0	495	1	
14	0	0	0	0	487	1	
15	0	0	0	0	477	1	
0	0	0	0	0	487	1	
1	0	0	0	0	516	1	
2	0	0	0	0	542	1	
3	0	0	0	0	545	1	
4	0	0	0	0	548	1	
5	0	0	0	0	547	1	
6	0	0	0	0	539	1	
7	0	0	0	0	534	1	
8	0	0	0	0	558	1	
9	0	0	0	0	534	1	
10	0	0	0	0	459	1	
11	0	0	0	0	463	1	
12	0	0	0	0	453	0	
13	0	0	0	0	472	0	
14	0	0	0	0	510	1	
15	0	0	0	0	538	1	
0	0	0	0	0	520	1	
1	0	0	0	0	510	1	
2	0	0	0	0	506	1	
3	0	0	0	0	514	1	
4	0	0	0	0	535	1	
5	0	0	0	0	557	1	
6	0	0	0	0	583	1	
7	0	0	0	0	576	0	
8	0	0	0	0	515	1	
9	0	0	0	0	432	0	
10	0	0	0	0	393	1	
11	0	0	0	0	434	0	
12	0	0	0	0	494	1	
13	0	0	0	0	533	1	
14	0	0	0	0	514	1	
15	0	0	0	0	491	0	
0	0	0	0	0	499	1	
1	0	0	0	0	491	1	
2	0	0	0	0	470	1	
3	0	0	0	0	495	1	
4	0	0	0	0	541	1	
5	0	0	0	0	557	1	
6	0	0	0	0	560	1	
7	0	0	0	0	540	0	
8	0	0	0	0	520	1	
9	0	0	0	0	506	1	
10	0	0	0	0	504	1	
11	0	0	0	0	499	1	
12	0	0	0	0	484	1	
13	0	0	0	0	487	1	
14	0	0	0	0	492	1	
15	0	0	0	0	502	1	
0	0	0	0	0	499	1	
1	0	0	0	0	508	1	
2	0	0	0	0	527	1	
3	0	0	0	0	529	1	
4	0	0	0	0	520	1	
5	0	0	0	0	520	1	
6	0	0	0	0	519	1	
7	0	0	0	0	513	1	
8	0	0	0	0	521	1	
9	0	0	0	0	524	1	
10	0	0	0	0	520	1	
11	0	0	0	0	516	1	
12	0	0	0	0	495	1	
13	0	0	0	0	445	0	
14	0	0	0	0	464	1	
15	0	0	0	0	495	1	
0	0	0	0	0	523	1	
1	0	0	0	0	545	1	
2	0	0	0	0	534	1	
3	0	0	0	0	528	1	
4	0	0	0	0	521	1	
5	0	0	0	0	519	1	
6	0	0	0	0	510	1	
7	0	0	0	0	490	1	
8	0	0	0	0	487	1	
9	0	0	0	0	494	1	
10	0	0	0	0	499	1	
11	0	0	0	0	500	1	
12	0	0	0	0	501	1	
13	0	0	0	0	489	1	
14	0	0	0	0	472	1	
15	0	0	0	0	472	1	
0	0	0	0	0	483	1	
1	0	0	0	0	494	1	
2	0	0	0	0	518	1	
3	0	0	0	0	541	1	
4	0	0	0	0	559	1	
5	0	0	0	0	561	1	
6	0	0	0	0	552	1	
7	0	0	0	0	552	1	
8	0	0	0	0	514	1	
9	0	0	0	0	500	1	
10	0	0	0	0	497	1	
11	0	0	0	0	526	1	
12	0	0	0	0	525	1	
13	0	0	0	0	519	1	
14	0	0	0	0	529	1	
15	0	0	0	0	515	1	
0	0	0	0	0	498	1	
1	0	0	0	0	505	1	
2	0	0	0	0	508	1	
3	0	0	0	0	518	1	
4	0	0	0	0	523	1	
5	0	0	0	0	467	1	
6	0	0	0	0	451	0	
7	0	0	0	0	471	1	
8	0	0	0	0	482	1	
9	0	0	0	0	500	1	
10	0	0	0	0	517	1	
11	0	0	0	0	519	1	
12	0	0	0	0	508	1	
13	0	0	0	0	506	1	
14	0	0	0	0	515	1	
15	0	0	0	0	515	0	
0	0	0	0	0	501	1	
1	0	0	0	0	467	1	
2	0	0	0	0	482	1	
3	0	0	0	0	512	1	
4	0	0	0	0	548	1	
5	0	0	0	0	592	1	
6	0	0	0	0	513	1	
7	0	0	0	0	476	0	
8	0	0	0	0	516	1	
9	0	0	0	0	536	1	
10	0	0	0	0	528	1	
11	0	0	0	0	521	1	
12	0	0	0	0	515	1	
13	0	0	0	0	510	1	
14	0	0	0	0	521	1	
15	0	0	0	0	534	0	
0	0	0	0	0	535	1	
1	0	0	0	0	512	1	
2	0	0	0	0	486	1	
3	0	0	0	0	484	1	
4	0	0	0	0	489	1	
5	0	0	0	0	495	1	
6	0	0	0	0	507	1	
7	0	0	0	0	504	1	
8	0	0	0	0	495	1	
9	0	0	0	0	524	1	
10	0	0	0	0	525	1	
11	0	0	0	0	531	1	
12	0	0	0	0	527	1	
13	0	0	0	0	489	0	
14	0	0	0	0	445	0	
15	0	0	0	0	437	0	
0	0	0	0	0	456	0	
1	0	0	0	0	493	1	
2	0	0	0	0	513	1	
3	0	0	0	0	524	1	
4	0	0	0	0	544	1	
5	0	0	0	0	547	1	
6	0	0	0	0	541	1	
7	0	0	0	0	535	1	
8	0	0	0	0	512	1	
9	0	0	0	0	496	1	
10	0	0	0	0	488	1	
11	0	0	0	0	497	1	
12	0	0	0	0	504	0	
13	0	0	0	0	493	1	
14	0	0	0	0	507	1	
15	0	0	0	0	526	1	
0	0	0	0	0	539	1	
1	0	0	0	0	546	1	
2	0	0	0	0	532	1	
3	0	0	0	0	514	1	
4	0	0	0	0	507	0	
5	0	0	0	0	512	1	
6	0	0	0	0	513	1	
7	0	0	0	0	507	1	
8	0	0	0	0	507	1	
9	0	0	0	0	513	1	
10	0	0	0	0	513	1	
11	0	0	0	0	505	1	
12	0	0	0	0	500	0	
13	0	0	0	0	500	1	
14	0	0	0	0	512	1	
15	0	0	0	0	512	1	
0	0	0	0	0	497	1	
1	0	0	0	0	479	1	
2	0	0	0	0	500	1	
3	0	0	0	0	502	1	
4	0	0	0	0	516	1	
5	0	0	0	0	519	1	
6	0	0	0	0	508	1	
7	0	0	0	0	494	1	
8	0	0	0	0	514	1	
9	0	0	0	0	522	1	
10	0	0	0	0	512	1	
11	0	0	0	0	508	1	
12	0	0	0	0	497	1	
13	0	0	0	0	490	1	
14	0	0	0	0	535	1	
15	0	0	0	0	553	1	
0	0	0	0	0	515	1	
1	0	0	0	0	523	1	
2	0	0	0	0	523	1	
3	0	0	0	0	508	1	
4	0	0	0	0	499	1	
5	0	0	0	0	488	1	
6	0	0	0	0	486	1	
7	0	0	0	0	494	1	
8	0	0	0	0	504	1	
9	0	0	0	0	510	1	
10	0	0	0	0	522	1	
11	0	0	0	0	531	1	
12	0	0	0	0	537	0	
13	0	0	0	0	529	1	
14	0	0	0	0	518	1	
15	0	0	0	0	501	1	
0	0	0	0	0	498	1	
1	0	0	0	0	507	1	
2	0	0	0	0	510	1	
3	0	0	0	0	501	1	
4	0	0	0	0	488	0	
5	0	0	0	0	479	1	
6	0	0	0	0	481	1	
7	0	0	0	0	489	1	
8	0	0	0	0	500	1	
9	0	0	0	0	482	1	
10	0	0	0	0	495	1	
11	0	0	0	0	512	1	
12	0	0	0	0	524	1	
13	0	0	0	0	526	1	
14	0	0	0	0	524	1	
15	0	0	0	0	524	1	
0	0	0	0	0	518	1	
1	0	0	0	0	518	1	
2	0	0	0	0	523	1	
3	0	0	0	0	531	1	
4	0	0	0	0	538	1	
5	0	0	0	0	531	1	
6	0	0	0	0	524	1	
7	0	0	0	0	508	1	
8	0	0	0	0	505	1	
9	0	0	0	0	483	1	
10	0	0	0	0	474	1	
11	0	0	0	0	495	1	
12	0	0	0	0	499	1	
13	0	0	0	0	524	1	
14	0	0	0	0	538	1	
15	0	0	0	0	530	1	
0	0	0	0	0	547	1	
1	0	0	0	0	528	1	
2	0	0	0	0	484	1	
3	0	0	0	0	446	0	
4	0	0	0	0	445	0	
5	0	0	0	0	473	1	
6	0	0	0	0	496	1	
7	0	0	0	0	517	0	
8	0	0	0	0	519	1	
9	0	0	0	0	501	1	
10	0	0	0	0	510	1	
11	0	0	0	0	507	1	
12	0	0	0	0	512	1	
13	0	0	0	0	519	1	
14	0	0	0	0	519	1	
15	0	0	0	0	513	0	
0	0	0	0	0	508	1	
1	0	0	0	0	505	1	
2	0	0	0	0	516	1	
3	0	0	0	0	528	1	
4	0	0	0	0	526	1	
5	0	0	0	0	518	1	
6	0	0	0	0	524	1	
7	0	0	0	0	532	1	
8	0	0	0	0	519	1	
9	0	0	0	0	499	1	
10	0	0	0	0	504	1	
11	0	0	0	0	516	1	
12	0	0	0	0	523	1	
13	0	0	0	0	520	1	
14	0	0	0	0	511	1	
15	0	0	0	0	505	1	
0	0	0	0	0	483	0	
1	0	0	0	0	481	1	
2	0	0	0	0	494	1	
3	0	0	0	0	508	1	
4	0	0	0	0	526	1	
5	0	0	0	0	510	1	
6	0	0	0	0	494	1	
7	0	0	0	0	502	1	
8	0	0	0	0	512	1	
9	0	0	0	0	513	1	
10	0	0	0	0	526	1	
11	0	0	0	0	534	1	
12	0	0	0	0	536	1	
13	0	0	0	0	542	1	
14	0	0	0	0	516	1	
15	0	0	0	0	485	1	
0	0	0	0	0	493	1	
1	0	0	0	0	499	1	
2	0	0	0	0	499	1	
3	0	0	0	0	523	1	
4	0	0	0	0	537	1	
5	0	0	0	0	492	1	
6	0	0	0	0	461	0	
7	0	0	0	0	453	0	
8	0	0	0	0	481	1	
9	0	0	0	0	513	1	
10	0	0	0	0	522	1	
11	0	0	0	0	509	1	
12	0	0	0	0	504	1	
13	0	0	0	0	517	1	
14	0	0	0	0	525	1	
15	0	0	0	0	527	1	
0	0	0	0	0	523	1	
1	0	0	0	0	531	1	
2	0	0	0	0	530	1	
3	0	0	0	0	529	1	
4	0	0	0	0	515	1	
5	0	0	0	0	504	1	
6	0	0	0	0	496	1	
7	0	0	0	0	500	1	
8	0	0	0	0	501	1	
9	0	0	0	0	491	1	
10	0	0	0	0	492	1	
11	0	0	0	0	519	1	
12	0	0	0	0	524	1	
13	0	0	0	0	524	1	
14	0	0	0	0	519	1	
15	0	0	0	0	490	1	
0	0	0	0	0	481	0	
1	0	0	0	0	500	1	
2	0	0	0	0	507	1	
3	0	0	0	0	518	1	
4	0	0	0	0	517	1	
5	0	0	0	0	521	1	
6	0	0	0	0	519	1	
7	0	0	0	0	524	1	
8	0	0	0	0	499	1	
9	0	0	0	0	498	1	
10	0	0	0	0	513	1	
11	0	0	0	0	515	1	
12	0	0	0	0	505	1	
13	0	0	0	0	499	1	
14	0	0	0	0	487	1	
15	0	0	0	0	489	0	
0	0	0	0	0	511	1	
1	0	0	0	0	504	1	
2	0	0	0	0	501	1	
3	0	0	0	0	506	1	
4	0	0	0	0	523	1	
5	0	0	0	0	530	1	
6	0	0	0	0	536	1	
7	0	0	0	0	545	0	
8	0	0	0	0	516	1	
9	0	0	0	0	491	1	
10	0	0	0	0	495	1	
11	0	0	0	0	507	1	
12	0	0	0	0	511	1	
13	0	0	0	0	508	1	
14	0	0	0	0	509	1	
15	0	0	0	0	508	1	
0	0	0	0	0	510	1	
1	0	0	0	0	510	1	
2	0	0	0	0	502	1	
3	0	0	0	0	508	1	
4	0	0	0	0	512	1	
5	0	0	0	0	503	1	
6	0	0	0	0	507	1	
7	0	0	0	0	512	1	
8	0	0	0	0	503	1	
9	0	0	0	0	501	1	
10	0	0	0	0	515	1	
11	0	0	0	0	524	1	
12	0	0	0	0	514	1	
13	0	0	0	0	512	1	
14	0	0	0	0	507	1	
15	0	0	0	0	519	1	
0	0	0	0	0	529	1	
1	0	0	0	0	528	1	
2	0	0	0	0	523	1	
3	0	0	0	0	512	1	
4	0	0	0	0	500	0	
5	0	0	0	0	499	1	
6	0	0	0	0	502	1	
7	0	0	0	0	502	1	
8	0	0	0	0	499	1	
9	0	0	0	0	485	1	
10	0	0	0	0	482	1	
11	0	0	0	0	508	1	
12	0	0	0	0	527	0	
13	0	0	0	0	523	1	
14	0	0	0	0	512	1	
15	0	0	0	0	493	1	
0	0	0	0	0	495	1	
1	0	0	0	0	501	1	
2	0	0	0	0	533	1	
3	0	0	0	0	543	1	
4	0	0	0	0	521	0	
5	0	0	0	0	505	1	
6	0	0	0	0	487	1	
7	0	0	0	0	502	1	
8	0	0	0	0	499	1	
9	0	0	0	0	482	1	
10	0	0	0	0	505	1	
11	0	0	0	0	516	1	
12	0	0	0	0	513	1	
13	0	0	0	0	512	1	
14	0	0	0	0	515	1	
15	0	0	0	0	515	1	
0	0	0	0	0	508	1	
1	0	0	0	0	500	1	
2	0	0	0	0	514	1	
3	0	0	0	0	524	1	
4	0	0	0	0	527	1	
5	0	0	0	0	531	1	
6	0	0	0	0	527	1	
7	0	0	0	0	543	1	
8	0	0	0	0	534	1	
9	0	0	0	0	510	1	
10	0	0	0	0	486	1	
11	0	0	0	0	474	1	
12	0	0	0	0	472	1	
13	0	0	0	0	472	1	
14	0	0	0	0	476	1	
15	0	0	0	0	487	1	
0	0	0	0	0	504	1	
1	0	0	0	0	520	1	
2	0	0	0	0	532	1	
3	0	0	0	0	534	1	
4	0	0	0	0	535	0	
5	0	0	0	0	539	1	
6	0	0	0	0	528	1	
7	0	0	0	0	499	1	
8	0	0	0	0	478	1	
9	0	0	0	0	491	1	
10	0	0	0	0	506	1	
11	0	0	0	0	517	1	
12	0	0	0	0	517	0	
13	0	0	0	0	523	1	
14	0	0	0	0	515	1	
15	0	0	0	0	505	1	
0	0	0	0	0	495	1	
1	0	0	0	0	497	1	
2	0	0	0	0	506	1	
3	0	0	0	0	504	1	
4	0	0	0	0	510	0	
5	0	0	0	0	520	1	
6	0	0	0	0	511	1	
7	0	0	0	0	504	1	
8	0	0	0	0	506	1	
9	0	0	0	0	512	1	
10	0	0	0	0	511	1	
11	0	0	0	0	514	1	
12	0	0	0	0	515	1	
13	0	0	0	0	524	1	
14	0	0	0	0	520	1	
15	0	0	0	0	517	1	
0	0	0	0	0	521	1	
1	0	0	0	0	518	1	
2	0	0	0	0	501	1	
3	0	0	0	0	504	1	
4	0	0	0	0	506	1	
5	0	0	0	0	511	1	
6	0	0	0	0	506	1	
7	0	0	0	0	489	1	
8	0	0	0	0	486	1	
9	0	0	0	0	492	1	
10	0	0	0	0	504	1	
11	0	0	0	0	511	1	
12	0	0	0	0	505	1	
13	0	0	0	0	497	1	
14	0	0	0	0	508	1	
15	0	0	0	0	512	0	
0	0	0	0	0	512	1	
1	0	0	0	0	507	1	
2	0	0	0	0	523	1	
3	0	0	0	0	544	1	
4	0	0	0	0	550	1	
5	0	0	0	0	532	1	
6	0	0	0	0	523	1	
7	0	0	0	0	512	0	
8	0	0	0	0	506	1	
9	0	0	0	0	500	1	
10	0	0	0	0	487	1	
11	0	0	0	0	473	1	
12	0	0	0	0	482	1	
13	0	0	0	0	492	1	
14	0	0	0	0	501	1	
15	0	0	0	0	507	0	
0	0	0	0	0	512	1	
1	0	0	0	0	521	1	
2	0	0	0	0	513	1	
3	0	0	0	0	502	1	
4	0	0	0	0	522	1	
5	0	0	0	0	534	1	
6	0	0	0	0	510	1	
7	0	0	0	0	517	1	
8	0	0	0	0	519	1	
9	0	0	0	0	523	1	
10	0	0	0	0	516	1	
11	0	0	0	0	506	1	
12	0	0	0	0	505	1	
13	0	0	0	0	508	1	
14	0	0	0	0	513	1	
15	0	0	0	0	508	1	
0	0	0	0	0	487	1	
1	0	0	0	0	485	1	
2	0	0	0	0	490	1	
3	0	0	0	0	498	1	
4	0	0	0	0	504	1	
5	0	0	0	0	505	1	
6	0	0	0	0	519	1	
7	0	0	0	0	519	1	
8	0	0	0	0	515	1	
9	0	0	0	0	520	1	
10	0	0	0	0	520	1	
11	0	0	0	0	512	1	
12	0	0	0	0	502	1	
13	0	0	0	0	510	1	
14	0	0	0	0	523	1	
15	0	0	0	0	528	1	
0	0	0	0	0	513	1	
1	0	0	0	0	507	1	
2	0	0	0	0	483	1	
3	0	0	0	0	482	1	
4	0	0	0	0	495	1	
5	0	0	0	0	493	1	
6	0	0	0	0	500	1	
7	0	0	0	0	502	1	
8	0	0	0	0	512	1	
9	0	0	0	0	518	1	
10	0	0	0	0	513	1	
11	0	0	0	0	511	1	
12	0	0	0	0	519	1	
13	0	0	0	0	525	1	
14	0	0	0	0	515	1	
15	0	0	0	0	521	1	
0	0	0	0	0	527	1	
1	0	0	0	0	524	1	
2	0	0	0	0	524	1	
3	0	0	0	0	519	1	
4	0	0	0	0	515	1	
5	0	0	0	0	503	1	
6	0	0	0	0	495	1	
7	0	0	0	0	485	1	
8	0	0	0	0	493	1	
9	0	0	0	0	488	1	
10	0	0	0	0	488	1	
11	0	0	0	0	496	1	
12	0	0	0	0	505	1	
13	0	0	0	0	512	1	
14	0	0	0	0	518	1	
15	0	0	0	0	527	1	
0	0	0	0	0	532	1	
1	0	0	0	0	526	1	
2	0	0	0	0	512	1	
3	0	0	0	0	514	1	
4	0	0	0	0	519	1	
5	0	0	0	0	512	1	
6	0	0	0	0	511	1	
7	0	0	0	0	505	0	
8	0	0	0	0	493	1	
9	0	0	0	0	491	1	
10	0	0	0	0	492	1	
11	0	0	0	0	500	1	
12	0	0	0	0	505	1	
13	0	0	0	0	507	1	
14	0	0	0	0	507	1	
15	0	0	0	0	513	0	
0	0	0	0	0	520	1	
1	0	0	0	0	522	1	
2	0	0	0	0	510	1	
3	0	0	0	0	513	1	
4	0	0	0	0	523	1	
5	0	0	0	0	525	1	
6	0	0	0	0	513	1	
7	0	0	0	0	512	0	
8	0	0	0	0	513	1	
9	0	0	0	0	509	1	
10	0	0	0	0	503	1	
11	0	0	0	0	492	1	
12	0	0	0	0	491	1	
13	0	0	0	0	499	1	
14	0	0	0	0	500	1	
15	0	0	0	0	499	1	
0	0	0	0	0	500	1	
1	0	0	0	0	517	1	
2	0	0	0	0	519	1	
3	0	0	0	0	523	1	
4	0	0	0	0	526	1	
5	0	0	0	0	531	1	
6	0	0	0	0	518	1	
7	0	0	0	0	515	1	
8	0	0	0	0	521	1	
9	0	0	0	0	524	1	
10	0	0	0	0	496	1	
11	0	0	0	0	493	1	
12	0	0	0	0	507	1	
13	0	0	0	0	516	1	
14	0	0	0	0	497	1	
15	0	0	0	0	489	1	
0	0	0	0	0	511	1	
1	0	0	0	0	522	1	
2	0	0	0	0	524	1	
3	0	0	0	0	500	1	
4	0	0	0	0	500	0	
5	0	0	0	0	508	1	
6	0	0	0	0	515	1	
7	0	0	0	0	487	1	
8	0	0	0	0	472	1	
9	0	0	0	0	483	1	
10	0	0	0	0	503	1	
11	0	0	0	0	517	1	
12	0	0	0	0	526	0	
13	0	0	0	0	530	1	
14	0	0	0	0	523	1	
15	0	0	0	0	516	1	
0	0	0	0	0	501	1	
1	0	0	0	0	485	1	
2	0	0	0	0	479	1	
3	0	0	0	0	508	1	
4	0	0	0	0	546	1	
5	0	0	0	0	536	1	
6	0	0	0	0	519	1	
7	0	0	0	0	522	1	
8	0	0	0	0	532	1	
9	0	0	0	0	526	1	
10	0	0	0	0	515	1	
11	0	0	0	0	508	1	
12	0	0	0	0	500	1	
13	0	0	0	0	492	1	
14	0	0	0	0	494	1	
15	0	0	0	0	495	1	
0	0	0	0	0	507	1	
1	0	0	0	0	511	1	
2	0	0	0	0	510	1	
3	0	0	0	0	510	1	
4	0	0	0	0	514	1	
5	0	0	0	0	511	1	
6	0	0	0	0	504	1	
7	0	0	0	0	495	1	
8	0	0	0	0	493	1	
9	0	0	0	0	498	1	
10	0	0	0	0	504	1	
11	0	0	0	0	513	1	
12	0	0	0	0	518	0	
13	0	0	0	0	511	1	
14	0	0	0	0	505	1	
15	0	0	0	0	510	1	
0	0	0	0	0	516	1	
1	0	0	0	0	517	1	
2	0	0	0	0	508	1	
3	0	0	0	0	516	1	
4	0	0	0	0	531	0	
5	0	0	0	0	517	1	
6	0	0	0	0	487	1	
7	0	0	0	0	501	1	
8	0	0	0	0	511	1	
9	0	0	0	0	503	1	
10	0	0	0	0	503	1	
11	0	0	0	0	512	1	
12	0	0	0	0	518	0	
13	0	0	0	0	523	1	
14	0	0	0	0	515	1	
15	0	0	0	0	507	1	
0	0	0	0	0	509	1	
1	0	0	0	0	494	1	
2	0	0	0	0	502	1	
3	0	0	0	0	507	1	
4	0	0	0	0	513	1	
5	0	0	0	0	498	1	
6	0	0	0	0	504	1	
7	0	0	0	0	505	1	
8	0	0	0	0	499	1	
9	0	0	0	0	503	1	
10	0	0	0	0	510	1	
11	0	0	0	0	524	1	
12	0	0	0	0	536	1	
13	0	0	0	0	542	1	
14	0	0	0	0	530	1	
15	0	0	0	0	523	1	
0	0	0	0	0	509	1	
1	0	0	0	0	507	1	
2	0	0	0	0	510	1	
3	0	0	0	0	499	1	
4	0	0	0	0	490	1	
5	0	0	0	0	497	1	
6	0	0	0	0	498	1	
7	0	0	0	0	504	0	
8	0	0	0	0	503	1	
9	0	0	0	0	506	1	
10	0	0	0	0	500	1	
11	0	0	0	0	502	1	
12	0	0	0	0	514	1	
13	0	0	0	0	520	1	
14	0	0	0	0	518	1	
15	0	0	0	0	524	0	
0	0	0	0	0	533	1	
1	0	0	0	0	524	1	
2	0	0	0	0	512	1	
3	0	0	0	0	504	1	
4	0	0	0	0	502	1	
5	0	0	0	0	501	1	
6	0	0	0	0	499	1	
7	0	0	0	0	502	0	
8	0	0	0	0	502	1	
9	0	0	0	0	497	1	
10	0	0	0	0	499	1	
11	0	0	0	0	507	1	
12	0	0	0	0	512	1	
13	0	0	0	0	509	1	
14	0	0	0	0	505	1	
15	0	0	0	0	503	1	
0	0	0	0	0	509	1	
1	0	0	0	0	516	1	
2	0	0	0	0	522	1	
3	0	0	0	0	528	1	
4	0	0	0	0	529	1	
5	0	0	0	0	522	1	
6	0	0	0	0	512	1	
7	0	0	0	0	499	1	
8	0	0	0	0	489	0	
9	0	0	0	0	486	1	
10	0	0	0	0	495	1	
11	0	0	0	0	504	1	
12	0	0	0	0	516	1	
13	0	0	0	0	511	1	
14	0	0	0	0	502	1	
15	0	0	0	0	507	1	
0	0	0	0	0	510	1	
1	0	0	0	0	517	1	
2	0	0	0	0	523	1	
3	0	0	0	0	532	1	
4	0	0	0	0	530	1	
5	0	0	0	0	526	1	
6	0	0	0	0	513	1	
7	0	0	0	0	499	1	
8	0	0	0	0	482	1	
9	0	0	0	0	491	1	
10	0	0	0	0	514	1	
11	0	0	0	0	526	1	
12	0	0	0	0	507	1	
13	0	0	0	0	493	1	
14	0	0	0	0	510	1	
15	0	0	0	0	508	1	
0	0	0	0	0	502	1	
1	0	0	0	0	503	1	
2	0	0	0	0	507	1	
3	0	0	0	0	508	1	
4	0	0	0	0	509	1	
5	0	0	0	0	515	1	
6	0	0	0	0	521	1	
7	0	0	0	0	524	1	
8	0	0	0	0	522	1	
9	0	0	0	0	505	1	
10	0	0	0	0	480	1	
11	0	0	0	0	492	1	
12	0	0	0	0	504	1	
13	0	0	0	0	509	1	
14	0	0	0	0	516	1	
15	0	0	0	0	516	1	
0	0	0	0	0	508	1	
1	0	0	0	0	507	1	
2	0	0	0	0	511	1	
3	0	0	0	0	514	1	
4	0	0	0	0	510	1	
5	0	0	0	0	503	1	
6	0	0	0	0	505	1	
7	0	0	0	0	507	1	
8	0	0	0	0	515	1	
9	0	0	0	0	510	1	
10	0	0	0	0	514	1	
11	0	0	0	0	516	1	
12	0	0	0	0	505	1	
13	0	0	0	0	512	1	
14	0	0	0	0	519	1	
15	0	0	0	0	520	0	
0	0	0	0	0	515	1	
1	0	0	0	0	512	1	
2	0	0	0	0	515	1	
3	0	0	0	0	524	1	
4	0	0	0	0	507	1	
5	0	0	0	0	496	1	
6	0	0	0	0	498	1	
7	0	0	0	0	513	0	
8	0	0	0	0	511	1	
9	0	0	0	0	496	1	
10	0	0	0	0	495	1	
11	0	0	0	0	497	1	
12	0	0	0	0	503	1	
13	0	0	0	0	514	1	
14	0	0	0	0	519	1	
15	0	0	0	0	524	0	
0	0	0	0	0	520	1	
1	0	0	0	0	515	1	
2	0	0	0	0	508	1	
3	0	0	0	0	505	1	
4	0	0	0	0	509	1	
5	0	0	0	0	511	1	
6	0	0	0	0	512	1	
7	0	0	0	0	503	1	
8	0	0	0	0	497	1	
9	0	0	0	0	500	1	
10	0	0	0	0	501	1	
11	0	0	0	0	500	1	
12	0	0	0	0	509	1	
13	0	0	0	0	502	1	
14	0	0	0	0	505	1	
15	0	0	0	0	507	1	
0	0	0	0	0	523	1	
1	0	0	0	0	533	1	
2	0	0	0	0	536	1	
3	0	0	0	0	508	1	
4	0	0	0	0	498	1	
5	0	0	0	0	499	0	
6	0	0	0	0	495	1	
7	0	0	0	0	506	1	
8	0	0	0	0	521	1	
9	0	0	0	0	520	1	
10	0	0	0	0	515	1	
11	0	0	0	0	509	1	
12	0	0	0	0	500	0	
13	0	0	0	0	503	1	
14	0	0	0	0	502	1	
15	0	0	0	0	507	1	
0	0	0	0	0	508	1	
1	0	0	0	0	496	1	
2	0	0	0	0	498	1	
3	0	0	0	0	510	1	
4	0	0	0	0	507	0	
5	0	0	0	0	508	1	
6	0	0	0	0	518	1	
7	0	0	0	0	512	1	
8	0	0	0	0	519	1	
9	0	0	0	0	515	1	
10	0	0	0	0	522	1	
11	0	0	0	0	528	1	
12	0	0	0	0	526	0	
13	0	0	0	0	519	1	
14	0	0	0	0	512	1	
15	0	0	0	0	505	1	
0	0	0	0	0	499	1	
1	0	0	0	0	496	1	
2	0	0	0	0	499	1	
3	0	0	0	0	500	1	
4	0	0	0	0	497	1	
5	0	0	0	0	507	1	
6	0	0	0	0	511	1	
7	0	0	0	0	511	1	
8	0	0	0	0	513	1	
9	0	0	0	0	518	1	
10	0	0	0	0	506	1	
11	0	0	0	0	496	1	
12	0	0	0	0	503	1	
13	0	0	0	0	502	1	
14	0	0	0	0	507	1	
15	0	0	0	0	527	1	
0	0	0	0	0	524	1	
1	0	0	0	0	520	1	
2	0	0	0	0	515	1	
3	0	0	0	0	511	1	
4	0	0	0	0	503	0	
5	0	0	0	0	501	1	
6	0	0	0	0	509	1	
7	0	0	0	0	502	1	
8	0	0	0	0	499	1	
9	0	0	0	0	504	1	
10	0	0	0	0	513	1	
11	0	0	0	0	531	1	
12	0	0	0	0	523	0	
13	0	0	0	0	494	1	
14	0	0	0	0	488	1	
15	0	0	0	0	492	1	
0	0	0	0	0	505	1	
1	0	0	0	0	513	1	
2	0	0	0	0	520	1	
3	0	0	0	0	529	1	
4	0	0	0	0	519	0	
5	0	0	0	0	519	1	
6	0	0	0	0	507	1	
7	0	0	0	0	497	1	
8	0	0	0	0	500	1	
9	0	0	0	0	508	1	
10	0	0	0	0	504	1	
11	0	0	0	0	503	1	
12	0	0	0	0	498	1	
13	0	0	0	0	503	1	
14	0	0	0	0	509	1	
15	0	0	0	0	519	1	
0	0	0	0	0	515	1	
1	0	0	0	0	510	1	
2	0	0	0	0	516	1	
3	0	0	0	0	521	1	
4	0	0	0	0	520	1	
5	0	0	0	0	521	1	
6	0	0	0	0	510	1	
7	0	0	0	0	506	1	
8	0	0	0	0	507	1	
9	0	0	0	0	507	1	
10	0	0	0	0	505	1	
11	0	0	0	0	504	1	
12	0	0	0	0	507	1	
13	0	0	0	0	518	1	
14	0	0	0	0	515	1	
15	0	0	0	0	501	1	
0	0	0	0	0	496	1	
1	0	0	0	0	491	1	
2	0	0	0	0	493	1	
3	0	0	0	0	503	1	
4	0	0	0	0	510	1	
5	0	0	0	0	515	1	
6	0	0	0	0	517	1	
7	0	0	0	0	518	0	
8	0	0	0	0	513	1	
9	0	0	0	0	513	1	
10	0	0	0	0	521	1	
11	0	0	0	0	523	1	
12	0	0	0	0	518	1	
13	0	0	0	0	511	1	
14	0	0	0	0	510	1	
15	0	0	0	0	509	0	
0	0	0	0	0	501	1	
1	0	0	0	0	496	1	
2	0	0	0	0	500	1	
3	0	0	0	0	506	1	
4	0	0	0	0	503	1	
5	0	0	0	0	501	1	
6	0	0	0	0	503	1	
7	0	0	0	0	508	1	
8	0	0	0	0	516	1	
9	0	0	0	0	516	1	
10	0	0	0	0	514	1	
11	0	0	0	0	510	1	
12	0	0	0	0	513	1	
13	0	0	0	0	518	1	
14	0	0	0	0	514	1	
15	0	0	0	0	516	1	
0	0	0	0	0	511	1	
1	0	0	0	0	505	1	
2	0	0	0	0	504	1	
3	0	0	0	0	505	1	
4	0	0	0	0	503	1	
5	0	0	0	0	502	1	
6	0	0	0	0	507	1	
7	0	0	0	0	508	1	
8	0	0	0	0	507	1	
9	0	0	0	0	508	1	
10	0	0	0	0	517	1	
11	0	0	0	0	516	1	
12	0	0	0	0	511	1	
13	0	0	0	0	505	1	
14	0	0	0	0	506	1	
15	0	0	0	0	508	1	
0	0	0	0	0	511	1	
1	0	0	0	0	508	1	
2	0	0	0	0	504	1	
3	0	0	0	0	515	1	
4	0	0	0	0	525	1	
5	0	0	0	0	528	1	
6	0	0	0	0	519	1	
7	0	0	0	0	515	1	
8	0	0	0	0	513	1	
9	0	0	0	0	499	1	
10	0	0	0	0	486	1	
11	0	0	0	0	490	1	
12	0	0	0	0	505	1	
13	0	0	0	0	510	1	
14	0	0	0	0	510	1	
15	0	0	0	0	499	1	
0	0	0	0	0	504	1	
1	0	0	0	0	504	1	
2	0	0	0	0	497	1	
3	0	0	0	0	505	1	
4	0	0	0	0	517	1	
5	0	0	0	0	526	1	
6	0	0	0	0	531	1	
7	0	0	0	0	530	1	
8	0	0	0	0	519	1	
9	0	0	0	0	515	1	
10	0	0	0	0	510	1	
11	0	0	0	0	497	1	
12	0	0	0	0	500	1	
13	0	0	0	0	504	1	
14	0	0	0	0	504	1	
15	0	0	0	0	505	1	
0	0	0	0	0	505	1	
1	0	0	0	0	500	1	
2	0	0	0	0	501	1	
3	0	0	0	0	505	1	
4	0	0	0	0	505	1	
5	0	0	0	0	513	1	
6	0	0	0	0	524	1	
7	0	0	0	0	519	0	
8	0	0	0	0	512	1	
9	0	0	0	0	517	1	
10	0	0	0	0	516	1	
11	0	0	0	0	517	1	
12	0	0	0	0	518	1	
13	0	0	0	0	516	1	
14	0	0	0	0	506	1	
15	0	0	0	0	502	0	
0	0	0	0	0	497	1	
1	0	0	0	0	499	1	
2	0	0	0	0	504	1	
3	0	0	0	0	511	1	
4	0	0	0	0	515	1	
5	0	0	0	0	501	1	
6	0	0	0	0	499	1	
7	0	0	0	0	501	0	
8	0	0	0	0	503	1	
9	0	0	0	0	508	1	
10	0	0	0	0	520	1	
11	0	0	0	0	521	1	
12	0	0	0	0	513	1	
13	0	0	0	0	511	1	
14	0	0	0	0	517	1	
15	0	0	0	0	521	1	
0	0	0	0	0	518	1	
1	0	0	0	0	511	1	
2	0	0	0	0	505	1	
3	0	0	0	0	504	1	
4	0	0	0	0	502	1	
5	0	0	0	0	498	1	
6	0	0	0	0	496	1	
7	0	0	0	0	496	1	
8	0	0	0	0	499	1	
9	0	0	0	0	507	1	
10	0	0	0	0	511	1	
11	0	0	0	0	508	1	
12	0	0	0	0	514	1	
13	0	0	0	0	513	1	
14	0	0	0	0	514	1	
15	0	0	0	0	519	1	
0	0	0	0	0	519	1	
1	0	0	0	0	516	1	
2	0	0	0	0	518	1	
3	0	0	0	0	519	1	
4	0	0	0	0	517	0	
5	0	0	0	0	510	1	
6	0	0	0	0	504	1	
7	0	0	0	0	492	1	
8	0	0	0	0	495	1	
9	0	0	0	0	505	1	
10	0	0	0	0	509	1	
11	0	0	0	0	508	1	
12	0	0	0	0	504	0	
13	0	0	0	0	499	1	
14	0	0	0	0	496	1	
15	0	0	0	0	507	1	
0	0	0	0	0	512	1	
1	0	0	0	0	512	1	
2	0	0	0	0	517	1	
3	0	0	0	0	521	1	
4	0	0	0	0	516	0	
5	0	0	0	0	523	1	
6	0	0	0	0	528	1	
7	0	0	0	0	521	1	
8	0	0	0	0	520	1	
9	0	0	0	0	510	1	
10	0	0	0	0	510	1	
11	0	0	0	0	504	1	
12	0	0	0	0	493	1	
13	0	0	0	0	492	1	
14	0	0	0	0	495	1	
15	0	0	0	0	497	1	
0	0	0	0	0	499	1	
1	0	0	0	0	500	1	
2	0	0	0	0	505	1	
3	0	0	0	0	514	1	
4	0	0	0	0	519	1	
5	0	0	0	0	517	1	
6	0	0	0	0	516	1	
7	0	0	0	0	505	1	
8	0	0	0	0	505	1	
9	0	0	0	0	512	1	
10	0	0	0	0	519	1	
11	0	0	0	0	522	1	
12	0	0	0	0	518	1	
13	0	0	0	0	515	1	
14	0	0	0	0	520	1	
15	0	0	0	0	517	1	
0	0	0	0	0	507	1	
1	0	0	0	0	495	1	
2	0	0	0	0	497	1	
3	0	0	0	0	493	1	
4	0	0	0	0	499	0	
5	0	0	0	0	503	1	
6	0	0	0	0	498	1	
7	0	0	0	0	505	1	
8	0	0	0	0	513	1	
9	0	0	0	0	515	1	
10	0	0	0	0	517	1	
11	0	0	0	0	519	1	
12	0	0	0	0	518	0	
13	0	0	0	0	513	1	
14	0	0	0	0	519	1	
15	0	0	0	0	523	1	
0	0	0	0	0	517	1	
1	0	0	0	0	510	1	
2	0	0	0	0	508	1	
3	0	0	0	0	510	1	
4	0	0	0	0	505	1	
5	0	0	0	0	504	1	
6	0	0	0	0	491	1	
7	0	0	0	0	491	1	
8	0	0	0	0	491	1	
9	0	0	0	0	489	1	
10	0	0	0	0	496	1	
11	0	0	0	0	506	1	
12	0	0	0	0	515	1	
13	0	0	0	0	521	1	
14	0	0	0	0	528	1	
15	0	0	0	0	534	1	
0	0	0	0	0	527	1	
1	0	0	0	0	520	1	
2	0	0	0	0	519	1	
3	0	0	0	0	523	1	
4	0	0	0	0	515	1	
5	0	0	0	0	511	1	
6	0	0	0	0	516	1	
7	0	0	0	0	508	1	
8	0	0	0	0	502	1	
9	0	0	0	0	504	1	
10	0	0	0	0	489	1	
11	0	0	0	0	483	1	
12	0	0	0	0	484	1	
13	0	0	0	0	492	1	
14	0	0	0	0	501	1	
15	0	0	0	0	509	0	
0	0	0	0	0	510	1	
1	0	0	0	0	511	1	
2	0	0	0	0	514	1	
3	0	0	0	0	512	1	
4	0	0	0	0	524	1	
5	0	0	0	0	518	1	
6	0	0	0	0	520	1	
7	0	0	0	0	531	0	
8	0	0	0	0	531	1	
9	0	0	0	0	520	1	
10	0	0	0	0	515	1	
11	0	0	0	0	512	1	
12	0	0	0	0	510	1	
13	0	0	0	0	502	1	
14	0	0	0	0	499	1	
15	0	0	0	0	498	0	
0	0	0	0	0	496	1	
1	0	0	0	0	491	1	
2	0	0	0	0	496	1	
3	0	0	0	0	504	1	
4	0	0	0	0	508	1	
5	0	0	0	0	509	1	
6	0	0	0	0	512	1	
7	0	0	0	0	514	1	
8	0	0	0	0	512	1	
9	0	0	0	0	514	1	
10	0	0	0	0	519	1	
11	0	0	0	0	522	1	
12	0	0	0	0	520	1	
13	0	0	0	0	514	1	
14	0	0	0	0	509	1	
15	0	0	0	0	502	1	
0	0	0	0	0	503	1	
1	0	0	0	0	504	1	
2	0	0	0	0	503	1	
3	0	0	0	0	501	1	
4	0	0	0	0	505	1	
5	0	0	0	0	503	1	
6	0	0	0	0	500	1	
7	0	0	0	0	505	1	
8	0	0	0	0	509	1	
9	0	0	0	0	515	1	
10	0	0	0	0	516	1	
11	0	0	0	0	521	1	
12	0	0	0	0	527	1	
13	0	0	0	0	524	1	
14	0	0	0	0	516	1	
15	0	0	0	0	518	1	
0	0	0	0	0	523	1	
1	0	0	0	0	500	1	
2	0	0	0	0	501	1	
3	0	0	0	0	496	1	
4	0	0	0	0	503	1	
5	0	0	0	0	510	1	
6	0	0	0	0	510	1	
7	0	0	0	0	508	1	
8	0	0	0	0	508	1	
9	0	0	0	0	499	1	
10	0	0	0	0	496	1	
11	0	0	0	0	495	1	
12	0	0	0	0	487	1	
13	0	0	0	0	490	1	
14	0	0	0	0	510	1	
15	0	0	0	0	519	1	
0	0	0	0	0	518	1	
1	0	0	0	0	517	1	
2	0	0	0	0	516	1	
3	0	0	0	0	520	1	
4	0	0	0	0	523	1	
5	0	0	0	0	523	1	
6	0	0	0	0	516	1	
7	0	0	0	0	512	1	
8	0	0	0	0	507	1	
9	0	0	0	0	505	1	
10	0	0	0	0	504	1	
11	0	0	0	0	505	1	
12	0	0	0	0	505	1	
13	0	0	0	0	503	1	
14	0	0	0	0	507	1	
15	0	0	0	0	509	1	
0	0	0	0	0	513	1	
1	0	0	0	0	516	1	
2	0	0	0	0	519	1	
3	0	0	0	0	512	1	
4	0	0	0	0	512	1	
5	0	0	0	0	505	1	
6	0	0	0	0	509	1	
7	0	0	0	0	512	0	
8	0	0	0	0	509	1	
9	0	0	0	0	508	1	
10	0	0	0	0	513	1	
11	0	0	0	0	515	1	
12	0	0	0	0	515	1	
13	0	0	0	0	512	1	
14	0	0	0	0	503	1	
15	0	0	0	0	501	0	
0	0	0	0	0	502	1	
1	0	0	0	0	501	1	
2	0	0	0	0	497	1	
3	0	0	0	0	501	1	
4	0	0	0	0	504	1	
5	0	0	0	0	501	1	
6	0	0	0	0	505	1	
7	0	0	0	0	512	1	
8	0	0	0	0	519	1	
9	0	0	0	0	523	1	
10	0	0	0	0	519	1	
11	0	0	0	0	522	1	
12	0	0	0	0	518	1	
13	0	0	0	0	513	1	
14	0	0	0	0	512	1	
15	0	0	0	0	509	1	
0	0	0	0	0	511	1	
1	0	0	0	0	506	1	
2	0	0	0	0	504	1	
3	0	0	0	0	504	1	
4	0	0	0	0	500	1	
5	0	0	0	0	497	0	
6	0	0	0	0	497	1	
7	0	0	0	0	501	1	
8	0	0	0	0	511	1	
9	0	0	0	0	509	1	
10	0	0	0	0	513	1	
11	0	0	0	0	515	1	
12	0	0	0	0	518	1	
13	0	0	0	0	515	1	
14	0	0	0	0	516	1	
15	0	0	0	0	521	1	
0	0	0	0	0	520	1	
1	0	0	0	0	513	1	
2	0	0	0	0	509	1	
3	0	0	0	0	508	1	
4	0	0	0	0	502	0	
5	0	0	0	0	506	1	
6	0	0	0	0	511	1	
7	0	0	0	0	506	1	
8	0	0	0	0	504	1	
9	0	0	0	0	502	1	
10	0	0	0	0	492	1	
11	0	0	0	0	496	1	
12	0	0	0	0	501	0	
13	0	0	0	0	508	1	
14	0	0	0	0	516	1	
15	0	0	0	0	519	1	
0	0	0	0	0	521	1	
1	0	0	0	0	514	1	
2	0	0	0	0	512	1	
3	0	0	0	0	515	1	
4	0	0	0	0	516	1	
5	0	0	0	0	516	1	
6	0	0	0	0	518	1	
7	0	0	0	0	519	1	
8	0	0	0	0	513	1	
9	0	0	0	0	508	1	
10	0	0	0	0	511	1	
11	0	0	0	0	505	1	
12	0	0	0	0	494	1	
13	0	0	0	0	480	1	
14	0	0	0	0	476	1	
15	0	0	0	0	487	1	
0	0	0	0	0	499	1	
1	0	0	0	0	510	1	
2	0	0	0	0	519	1	
3	0	0	0	0	523	1	
4	0	0	0	0	524	1	
5	0	0	0	0	528	1	
6	0	0	0	0	531	1	
7	0	0	0	0	527	1	
8	0	0	0	0	519	1	
9	0	0	0	0	511	1	
10	0	0	0	0	508	1	
11	0	0	0	0	505	1	
12	0	0	0	0	498	0	
13	0	0	0	0	500	1	
14	0	0	0	0	500	1	
15	0	0	0	0	503	1	
0	0	0	0	0	501	1	
1	0	0	0	0	501	1	
2	0	0	0	0	502	1	
3	0	0	0	0	505	1	
4	0	0	0	0	511	0	
5	0	0	0	0	515	1	
6	0	0	0	0	519	1	
7	0	0	0	0	520	1	
8	0	0	0	0	516	1	
9	0	0	0	0	514	1	
10	0	0	0	0	517	1	
11	0	0	0	0	516	1	
12	0	0	0	0	511	0	
13	0	0	0	0	509	1	
14	0	0	0	0	506	1	
15	0	0	0	0	502	1	
0	0	0	0	0	502	1	
1	0	0	0	0	505	1	
2	0	0	0	0	502	1	
3	0	0	0	0	502	1	
4	0	0	0	0	499	1	
5	0	0	0	0	495	1	
6	0	0	0	0	502	1	
7	0	0	0	0	509	1	
8	0	0	0	0	515	1	
9	0	0	0	0	513	1	
10	0	0	0	0	513	1	
11	0	0	0	0	517	1	
12	0	0	0	0	520	1	
13	0	0	0	0	516	1	
14	0	0	0	0	516	1	
15	0	0	0	0	519	1	
0	0	0	0	0	522	1	
1	0	0	0	0	514	1	
2	0	0	0	0	508	1	
3	0	0	0	0	507	1	
4	0	0	0	0	508	1	
5	0	0	0	0	506	1	
6	0	0	0	0	506	1	
7	0	0	0	0	501	0	
8	0	0	0	0	500	1	
9	0	0	0	0	502	1	
10	0	0	0	0	501	1	
11	0	0	0	0	506	1	
12	0	0	0	0	509	1	
13	0	0	0	0	511	1	
14	0	0	0	0	512	1	
15	0	0	0	0	508	0	
0	0	0	0	0	508	1	
1	0	0	0	0	511	1	
2	0	0	0	0	512	1	
3	0	0	0	0	515	1	
4	0	0	0	0	516	1	
5	0	0	0	0	512	1	
6	0	0	0	0	515	1	
7	0	0	0	0	513	0	
8	0	0	0	0	512	1	
9	0	0	0	0	505	1	
10	0	0	0	0	502	1	
11	0	0	0	0	502	1	
12	0	0	0	0	499	1	
13	0	0	0	0	500	1	
14	0	0	0	0	499	1	
15	0	0	0	0	499	1	
0	0	0	0	0	499	1	
1	0	0	0	0	501	1	
2	0	0	0	0	507	1	
3	0	0	0	0	516	1	
4	0	0	0	0	521	1	
5	0	0	0	0	517	1	
6	0	0	0	0	517	1	
7	0	0	0	0	531	1	
8	0	0	0	0	534	1	
9	0	0	0	0	523	1	
10	0	0	0	0	506	1	
11	0	0	0	0	503	1	
12	0	0	0	0	498	1	
13	0	0	0	0	494	1	
14	0	0	0	0	499	1	
15	0	0	0	0	503	1	
0	0	0	0	0	504	1	
1	0	0	0	0	498	1	
2	0	0	0	0	505	1	
3	0	0	0	0	520	1	
4	0	0	0	0	525	1	
5	0	0	0	0	519	1	
6	0	0	0	0	514	1	
7	0	0	0	0	505	1	
8	0	0	0	0	507	1	
9	0	0	0	0	506	1	
10	0	0	0	0	513	1	
11	0	0	0	0	527	1	
12	0	0	0	0	519	1	
13	0	0	0	0	516	1	
14	0	0	0	0	512	1	
15	0	0	0	0	513	1	
0	0	0	0	0	504	1	
1	0	0	0	0	501	1	
2	0	0	0	0	502	1	
3	0	0	0	0	499	1	
4	0	0	0	0	495	1	
5	0	0	0	0	503	1	
6	0	0	0	0	508	1	
7	0	0	0	0	510	1	
8	0	0	0	0	508	1	
9	0	0	0	0	513	1	
10	0	0	0	0	514	1	
11	0	0	0	0	515	1	
12	0	0	0	0	518	1	
13	0	0	0	0	513	1	
14	0	0	0	0	518	1	
15	0	0	0	0	517	1	
0	0	0	0	0	515	1	
1	0	0	0	0	515	1	
2	0	0	0	0	510	1	
3	0	0	0	0	504	1	
4	0	0	0	0	499	1	
5	0	0	0	0	494	1	
6	0	0	0	0	495	1	
7	0	0	0	0	498	1	
8	0	0	0	0	497	1	
9	0	0	0	0	491	1	
10	0	0	0	0	496	1	
11	0	0	0	0	508	1	
12	0	0	0	0	513	1	
13	0	0	0	0	516	1	
14	0	0	0	0	523	1	
15	0	0	0	0	533	0	
0	0	0	0	0	520	1	
1	0	0	0	0	517	1	
2	0	0	0	0	517	1	
3	0	0	0	0	515	1	
4	0	0	0	0	509	1	
5	0	0	0	0	510	1	
6	0	0	0	0	511	1	
7	0	0	0	0	522	0	
8	0	0	0	0	527	1	
9	0	0	0	0	508	1	
10	0	0	0	0	503	1	
11	0	0	0	0	493	1	
12	0	0	0	0	495	1	
13	0	0	0	0	493	1	
14	0	0	0	0	495	1	
15	0	0	0	0	503	0	
0	0	0	0	0	511	1	
1	0	0	0	0	510	1	
2	0	0	0	0	513	1	
3	0	0	0	0	512	1	
4	0	0	0	0	513	1	
5	0	0	0	0	517	1	
6	0	0	0	0	520	1	
7	0	0	0	0	525	1	
8	0	0	0	0	519	1	
9	0	0	0	0	512	1	
10	0	0	0	0	504	1	
11	0	0	0	0	500	1	
12	0	0	0	0	500	1	
13	0	0	0	0	496	0	
14	0	0	0	0	493	1	
15	0	0	0	0	501	1	
0	0	0	0	0	503	1	
1	0	0	0	0	509	1	
2	0	0	0	0	508	1	
3	0	0	0	0	511	1	
4	0	0	0	0	514	1	
5	0	0	0	0	515	1	
6	0	0	0	0	515	1	
7	0	0	0	0	515	1	
8	0	0	0	0	513	1	
9	0	0	0	0	513	1	
10	0	0	0	0	520	1	
11	0	0	0	0	515	1	
12	0	0	0	0	510	0	
13	0	0	0	0	503	1	
14	0	0	0	0	496	1	
15	0	0	0	0	494	1	
0	0	0	0	0	498	1	
1	0	0	0	0	502	1	
2	0	0	0	0	507	1	
3	0	0	0	0	511	1	
4	0	0	0	0	508	0	
5	0	0	0	0	511	1	
6	0	0	0	0	509	1	
7	0	0	0	0	512	1	
8	0	0	0	0	513	1	
9	0	0	0	0	514	1	
10	0	0	0	0	512	1	
11	0	0	0	0	514	1	
12	0	0	0	0	515	0	
13	0	0	0	0	514	1	
14	0	0	0	0	515	1	
15	0	0	0	0	524	1	
0	0	0	0	0	516	1	
1	0	0	0	0	505	1	
2	0	0	0	0	500	1	
3	0	0	0	0	503	1	
4	0	0	0	0	505	1	
5	0	0	0	0	501	1	
6	0	0	0	0	504	1	
7	0	0	0	0	507	1	
8	0	0	0	0	500	1	
9	0	0	0	0	500	1	
10	0	0	0	0	504	1	
11	0	0	0	0	506	1	
12	0	0	0	0	506	1	
13	0	0	0	0	509	1	
14	0	0	0	0	513	1	
15	0	0	0	0	524	1	
0	0	0	0	0	526	1	
1	0	0	0	0	519	1	
2	0	0	0	0	526	1	
3	0	0	0	0	526	1	
4	0	0	0	0	513	0	
5	0	0	0	0	502	1	
6	0	0	0	0	500	1	
7	0	0	0	0	499	1	
8	0	0	0	0	494	1	
9	0	0	0	0	498	1	
10	0	0	0	0	499	1	
11	0	0	0	0	499	1	
12	0	0	0	0	520	0	
13	0	0	0	0	515	1	
14	0	0	0	0	505	1	
15	0	0	0	0	504	1	
0	0	0	0	0	514	1	
1	0	0	0	0	519	1	
2	0	0	0	0	518	1	
3	0	0	0	0	517	1	
4	0	0	0	0	522	0	
5	0	0	0	0	525	1	
6	0	0	0	0	513	1	
7	0	0	0	0	513	1	
8	0	0	0	0	512	1	
9	0	0	0	0	507	1	
10	0	0	0	0	504	1	
11	0	0	0	0	504	1	
12	0	0	0	0	504	1	
13	0	0	0	0	502	1	
14	0	0	0	0	501	1	
15	0	0	0	0	505	1	
0	0	0	0	0	500	1	
1	0	0	0	0	495	1	
2	0	0	0	0	495	1	
3	0	0	0	0	505	1	
4	0	0	0	0	506	1	
5	0	0	0	0	510	1	
6	0	0	0	0	512	1	
7	0	0	0	0	513	1	
8	0	0	0	0	520	1	
9	0	0	0	0	525	1	
10	0	0	0	0	532	1	
11	0	0	0	0	527	1	
12	0	0	0	0	522	1	
13	0	0	0	0	510	1	
14	0	0	0	0	507	1	
15	0	0	0	0	504	0	
0	0	0	0	0	512	1	
1	0	0	0	0	509	1	
2	0	0	0	0	504	1	
3	0	0	0	0	505	1	
4	0	0	0	0	501	1	
5	0	0	0	0	495	1	
6	0	0	0	0	497	1	
7	0	0	0	0	505	0	
8	0	0	0	0	508	1	
9	0	0	0	0	513	1	
10	0	0	0	0	520	1	
11	0	0	0	0	518	1	
12	0	0	0	0	512	1	
13	0	0	0	0	515	1	
14	0	0	0	0	519	1	
15	0	0	0	0	517	0	
0	0	0	0	0	513	1	
1	0	0	0	0	514	1	
2	0	0	0	0	507	1	
3	0	0	0	0	503	1	
4	0	0	0	0	499	1	
5	0	0	0	0	500	1	
6	0	0	0	0	500	1	
7	0	0	0	0	502	1	
8	0	0	0	0	502	1	
9	0	0	0	0	504	1	
10	0	0	0	0	504	1	
11	0	0	0	0	509	1	
12	0	0	0	0	510	1	
13	0	0	0	0	512	1	
14	0	0	0	0	511	1	
15	0	0	0	0	508	1	
0	0	0	0	0	508	1	
1	0	0	0	0	515	1	
2	0	0	0	0	523	1	
3	0	0	0	0	532	1	
4	0	0	0	0	527	1	
5	0	0	0	0	513	1	
6	0	0	0	0	510	1	
7	0	0	0	0	508	1	
8	0	0	0	0	503	1	
9	0	0	0	0	495	1	
10	0	0	0	0	493	1	
11	0	0	0	0	492	1	
12	0	0	0	0	492	1	
13	0	0	0	0	503	1	
14	0	0	0	0	507	1	
15	0	0	0	0	508	1	
0	0	0	0	0	518	1	
1	0	0	0	0	524	1	
2	0	0	0	0	521	1	
3	0	0	0	0	520	1	
4	0	0	0	0	523	1	
5	0	0	0	0	516	1	
6	0	0	0	0	516	1	
7	0	0	0	0	518	1	
8	0	0	0	0	514	1	
9	0	0	0	0	510	1	
10	0	0	0	0	505	1	
11	0	0	0	0	503	1	
12	0	0	0	0	500	1	
13	0	0	0	0	496	1	
14	0	0	0	0	494	1	
15	0	0	0	0	497	1	
0	0	0	0	0	494	1	
1	0	0	0	0	503	1	
2	0	0	0	0	500	1	
3	0	0	0	0	503	1	
4	0	0	0	0	527	1	
5	0	0	0	0	522	1	
6	0	0	0	0	519	1	
7	0	0	0	0	517	1	
8	0	0	0	0	520	1	
9	0	0	0	0	520	1	
10	0	0	0	0	523	1	
11	0	0	0	0	517	1	
12	0	0	0	0	511	1	
13	0	0	0	0	495	1	
14	0	0	0	0	496	1	
15	0	0	0	0	498	1	
0	0	0	0	0	502	1	
1	0	0	0	0	511	1	
2	0	0	0	0	505	1	
3	0	0	0	0	497	1	
4	0	0	0	0	491	1	
5	0	0	0	0	499	1	
6	0	0	0	0	504	1	
7	0	0	0	0	518	0	
8	0	0	0	0	520	1	
9	0	0	0	0	515	1	
10	0	0	0	0	516	1	
11	0	0	0	0	515	1	
12	0	0	0	0	513	1	
13	0	0	0	0	524	1	
14	0	0	0	0	518	1	
15	0	0	0	0	519	0	
0	0	0	0	0	525	1	
1	0	0	0	0	513	1	
2	0	0	0	0	503	1	
3	0	0	0	0	496	1	
4	0	0	0	0	496	1	
5	0	0	0	0	489	1	
6	0	0	0	0	482	1	
7	0	0	0	0	490	0	
8	0	0	0	0	500	1	
9	0	0	0	0	508	1	
10	0	0	0	0	518	1	
11	0	0	0	0	507	1	
12	0	0	0	0	522	1	
13	0	0	0	0	527	1	
14	0	0	0	0	517	1	
15	0	0	0	0	522	1	
0	0	0	0	0	543	1	
1	0	0	0	0	534	1	
2	0	0	0	0	526	1	
3	0	0	0	0	526	1	
4	0	0	0	0	508	1	
5	0	0	0	0	498	1	
6	0	0	0	0	487	1	
7	0	0	0	0	491	1	
8	0	0	0	0	500	1	
9	0	0	0	0	508	1	
10	0	0	0	0	506	1	
11	0	0	0	0	505	1	
12	0	0	0	0	502	1	
13	0	0	0	0	500	1	
14	0	0	0	0	503	1	
15	0	0	0	0	512	1	
0	0	0	0	0	507	1	
1	0	0	0	0	501	1	
2	0	0	0	0	503	1	
3	0	0	0	0	503	1	
4	0	0	0	0	505	0	
5	0	0	0	0	519	1	
6	0	0	0	0	523	1	
7	0	0	0	0	525	1	
8	0	0	0	0	522	1	
9	0	0	0	0	512	1	
10	0	0	0	0	516	1	
11	0	0	0	0	516	1	
12	0	0	0	0	504	0	
13	0	0	0	0	496	1	
14	0	0	0	0	492	1	
15	0	0	0	0	498	1	
0	0	0	0	0	496	1	
1	0	0	0	0	503	1	
2	0	0	0	0	510	1	
3	0	0	0	0	506	1	
4	0	0	0	0	512	0	
5	0	0	0	0	511	1	
6	0	0	0	0	513	1	
7	0	0	0	0	502	1	
8	0	0	0	0	510	1	
9	0	0	0	0	519	1	
10	0	0	0	0	534	1	
11	0	0	0	0	548	1	
12	0	0	0	0	533	1	
13	0	0	0	0	516	1	
14	0	0	0	0	504	1	
15	0	0	0	0	502	1	
0	0	0	0	0	504	1	
1	0	0	0	0	505	1	
2	0	0	0	0	506	1	
3	0	0	0	0	505	1	
4	0	0	0	0	494	1	
5	0	0	0	0	486	1	
6	0	0	0	0	487	1	
7	0	0	0	0	494	1	
8	0	0	0	0	498	1	
9	0	0	0	0	514	1	
10	0	0	0	0	524	1	
11	0	0	0	0	512	1	
12	0	0	0	0	504	1	
13	0	0	0	0	515	1	
14	0	0	0	0	515	1	
15	0	0	0	0	515	1	
0	0	0	0	0	517	1	
1	0	0	0	0	519	1	
2	0	0	0	0	505	1	
3	0	0	0	0	507	1	
4	0	0	0	0	510	0	
5	0	0	0	0	504	1	
6	0	0	0	0	518	1	
7	0	0	0	0	516	1	
8	0	0	0	0	505	1	
9	0	0	0	0	494	1	
10	0	0	0	0	490	1	
11	0	0	0	0	493	1	
12	0	0	0	0	498	0	
13	0	0	0	0	516	1	
14	0	0	0	0	525	1	
15	0	0	0	0	521	1	
0	0	0	0	0	511	1	
1	0	0	0	0	507	1	
2	0	0	0	0	516	1	
3	0	0	0	0	526	1	
4	0	0	0	0	530	1	
5	0	0	0	0	527	1	
6	0	0	0	0	511	1	
7	0	0	0	0	515	1	
8	0	0	0	0	521	1	
9	0	0	0	0	501	1	
10	0	0	0	0	487	1	
11	0	0	0	0	496	1	
12	0	0	0	0	495	1	
13	0	0	0	0	494	1	
14	0	0	0	0	491	1	
15	0	0	0	0	512	1	
0	0	0	0	0	513	1	
1	0	0	0	0	507	1	
2	0	0	0	0	510	1	
3	0	0	0	0	514	1	
4	0	0	0	0	526	1	
5	0	0	0	0	524	1	
6	0	0	0	0	525	1	
7	0	0	0	0	515	1	
8	0	0	0	0	507	1	
9	0	0	0	0	498	1	
10	0	0	0	0	497	1	
11	0	0	0	0	493	1	
12	0	0	0	0	503	1	
13	0	0	0	0	526	1	
14	0	0	0	0	524	1	
15	0	0	0	0	521	0	
0	0	0	0	0	512	1	
1	0	0	0	0	494	1	
2	0	0	0	0	490	1	
3	0	0	0	0	495	1	
4	0	0	0	0	492	1	
5	0	0	0	0	487	1	
6	0	0	0	0	501	1	
7	0	0	0	0	517	0	
8	0	0	0	0	540	1	
9	0	0	0	0	537	1	
10	0	0	0	0	532	1	
11	0	0	0	0	540	1	
12	0	0	0	0	528	1	
13	0	0	0	0	511	1	
14	0	0	0	0	512	1	
15	0	0	0	0	497	1	
0	0	0	0	0	490	1	
1	0	0	0	0	490	1	
2	0	0	0	0	494	1	
3	0	0	0	0	499	1	
4	0	0	0	0	490	1	
5	0	0	0	0	500	1	
6	0	0	0	0	503	1	
7	0	0	0	0	506	1	
8	0	0	0	0	508	1	
9	0	0	0	0	512	1	
10	0	0	0	0	506	1	
11	0	0	0	0	510	1	
12	0	0	0	0	523	1	
13	0	0	0	0	527	1	
14	0	0	0	0	521	1	
15	0	0	0	0	514	1	
0	0	0	0	0	520	1	
1	0	0	0	0	519	1	
2	0	0	0	0	513	1	
3	0	0	0	0	517	1	
4	0	0	0	0	500	1	
5	0	0	0	0	491	1	
6	0	0	0	0	486	1	
7	0	0	0	0	500	1	
8	0	0	0	0	503	1	
9	0	0	0	0	514	1	
10	0	0	0	0	513	1	
11	0	0	0	0	508	1	
12	0	0	0	0	510	1	
13	0	0	0	0	510	1	
14	0	0	0	0	513	1	
15	0	0	0	0	516	1	
0	0	0	0	0	521	1	
1	0	0	0	0	520	1	
2	0	0	0	0	528	1	
3	0	0	0	0	528	1	
4	0	0	0	0	517	1	
5	0	0	0	0	508	1	
6	0	0	0	0	507	1	
7	0	0	0	0	501	1	
8	0	0	0	0	495	1	
9	0	0	0	0	502	1	
10	0	0	0	0	499	1	
11	0	0	0	0	494	1	
12	0	0	0	0	480	1	
13	0	0	0	0	481	1	
14	0	0	0	0	526	1	
15	0	0	0	0	531	1	
0	0	0	0	0	517	1	
1	0	0	0	0	514	1	
2	0	0	0	0	505	1	
3	0	0	0	0	503	1	
4	0	0	0	0	505	1	
5	0	0	0	0	510	1	
6	0	0	0	0	531	1	
7	0	0	0	0	540	1	
8	0	0	0	0	528	1	
9	0	0	0	0	509	1	
10	0	0	0	0	496	1	
11	0	0	0	0	492	1	
12	0	0	0	0	506	1	
13	0	0	0	0	504	1	
14	0	0	0	0	499	1	
15	0	0	0	0	500	1	
0	0	0	0	0	495	1	
1	0	0	0	0	498	1	
2	0	0	0	0	506	1	
3	0	0	0	0	503	1	
4	0	0	0	0	512	1	
5	0	0	0	0	523	1	
6	0	0	0	0	519	1	
7	0	0	0	0	509	0	
8	0	0	0	0	507	1	
9	0	0	0	0	511	1	
10	0	0	0	0	529	1	
11	0	0	0	0	527	1	
12	0	0	0	0	521	1	
13	0	0	0	0	522	1	
14	0	0	0	0	504	1	
15	0	0	0	0	498	0	
0	0	0	0	0	500	1	
1	0	0	0	0	504	1	
2	0	0	0	0	507	1	
3	0	0	0	0	507	1	
4	0	0	0	0	501	1	
5	0	0	0	0	501	1	
6	0	0	0	0	501	1	
7	0	0	0	0	507	1	
8	0	0	0	0	507	1	
9	0	0	0	0	498	1	
10	0	0	0	0	489	1	
11	0	0	0	0	494	1	
12	0	0	0	0	504	1	
13	0	0	0	0	547	1	
14	0	0	0	0	566	1	
15	0	0	0	0	541	1	
0	0	0	0	0	517	1	
1	0	0	0	0	508	1	
2	0	0	0	0	501	1	
3	0	0	0	0	500	1	
4	0	0	0	0	499	1	
5	0	0	0	0	504	1	
6	0	0	0	0	503	1	
7	0	0	0	0	496	1	
8	0	0	0	0	499	1	
9	0	0	0	0	504	1	
10	0	0	0	0	507	1	
11	0	0	0	0	505	1	
12	0	0	0	0	502	1	
13	0	0	0	0	511	1	
14	0	0	0	0	507	1	
15	0	0	0	0	513	1	
0	0	0	0	0	503	1	
1	0	0	0	0	507	1	
2	0	0	0	0	532	1	
3	0	0	0	0	539	1	
4	0	0	0	0	522	0	
5	0	0	0	0	514	1	
6	0	0	0	0	505	1	
7	0	0	0	0	503	1	
8	0	0	0	0	497	1	
9	0	0	0	0	495	1	
10	0	0	0	0	486	1	
11	0	0	0	0	489	1	
12	0	0	0	0	503	0	
13	0	0	0	0	503	1	
14	0	0	0	0	511	1	
15	0	0	0	0	512	1	
0	0	0	0	0	508	1	
1	0	0	0	0	516	1	
2	0	0	0	0	540	1	
3	0	0	0	0	530	1	
4	0	0	0	0	516	1	
5	0	0	0	0	508	1	
6	0	0	0	0	512	1	
7	0	0	0	0	524	1	
8	0	0	0	0	521	1	
9	0	0	0	0	520	1	
10	0	0	0	0	512	1	
11	0	0	0	0	502	1	
12	0	0	0	0	503	1	
13	0	0	0	0	496	1	
14	0	0	0	0	495	1	
15	0	0	0	0	499	1	
0	0	0	0	0	487	1	
1	0	0	0	0	491	1	
2	0	0	0	0	499	1	
3	0	0	0	0	505	1	
4	0	0	0	0	510	1	
5	0	0	0	0	511	1	
6	0	0	0	0	512	1	
7	0	0	0	0	509	1	
8	0	0	0	0	502	1	
9	0	0	0	0	496	1	
10	0	0	0	0	510	1	
11	0	0	0	0	527	1	
12	0	0	0	0	525	0	
13	0	0	0	0	529	1	
14	0	0	0	0	529	1	
15	0	0	0	0	541	1	
0	0	0	0	0	510	1	
1	0	0	0	0	505	1	
2	0	0	0	0	497	1	
3	0	0	0	0	492	1	
4	0	0	0	0	492	0	
5	0	0	0	0	497	1	
6	0	0	0	0	510	1	
7	0	0	0	0	512	1	
8	0	0	0	0	507	1	
9	0	0	0	0	512	1	
10	0	0	0	0	519	1	
11	0	0	0	0	535	1	
12	0	0	0	0	517	0	
13	0	0	0	0	519	1	
14	0	0	0	0	515	1	
15	0	0	0	0	509	1	
0	0	0	0	0	503	1	
1	0	0	0	0	504	1	
2	0	0	0	0	494	1	
3	0	0	0	0	494	1	
4	0	0	0	0	507	1	
5	0	0	0	0	513	1	
6	0	0	0	0	510	1	
7	0	0	0	0	507	1	
8	0	0	0	0	499	1	
9	0	0	0	0	489	1	
10	0	0	0	0	494	1	
11	0	0	0	0	508	1	
12	0	0	0	0	508	1	
13	0	0	0	0	508	1	
14	0	0	0	0	531	1	
15	0	0	0	0	546	1	
0	0	0	0	0	528	1	
1	0	0	0	0	521	1	
2	0	0	0	0	518	1	
3	0	0	0	0	521	1	
4	0	0	0	0	518	1	
5	0	0	0	0	500	1	
6	0	0	0	0	491	1	
7	0	0	0	0	499	0	
8	0	0	0	0	510	1	
9	0	0	0	0	508	1	
10	0	0	0	0	488	1	
11	0	0	0	0	489	1	
12	0	0	0	0	504	1	
13	0	0	0	0	514	1	
14	0	0	0	0	524	1	
15	0	0	0	0	512	0	
0	0	0	0	0	512	1	
1	0	0	0	0	507	1	
2	0	0	0	0	510	1	
3	0	0	0	0	512	1	
4	0	0	0	0	516	1	
5	0	0	0	0	522	1	
6	0	0	0	0	518	1	
7	0	0	0	0	512	0	
8	0	0	0	0	499	1	
9	0	0	0	0	493	1	
10	0	0	0	0	497	1	
11	0	0	0	0	515	1	
12	0	0	0	0	515	1	
13	0	0	0	0	510	1	
14	0	0	0	0	511	1	
15	0	0	0	0	519	1	
0	0	0	0	0	510	1	
1	0	0	0	0	495	1	
2	0	0	0	0	498	1	
3	0	0	0	0	500	1	
4	0	0	0	0	504	1	
5	0	0	0	0	509	1	
6	0	0	0	0	507	1	
7	0	0	0	0	504	1	
8	0	0	0	0	517	1	
9	0	0	0	0	512	1	
10	0	0	0	0	519	1	
11	0	0	0	0	531	1	
12	0	0	0	0	533	1	
13	0	0	0	0	530	1	
14	0	0	0	0	515	1	
15	0	0	0	0	501	1	
0	0	0	0	0	499	1	
1	0	0	0	0	500	1	
2	0	0	0	0	501	1	
3	0	0	0	0	495	1	
4	0	0	0	0	497	1	
5	0	0	0	0	488	1	
6	0	0	0	0	487	1	
7	0	0	0	0	503	1	
8	0	0	0	0	524	1	
9	0	0	0	0	525	1	
10	0	0	0	0	523	1	
11	0	0	0	0	517	1	
12	0	0	0	0	507	1	
13	0	0	0	0	504	1	
14	0	0	0	0	511	1	
15	0	0	0	0	525	1	
0	0	0	0	0	540	1	
1	0	0	0	0	526	1	
2	0	0	0	0	506	1	
3	0	0	0	0	496	1	
4	0	0	0	0	491	1	
5	0	0	0	0	490	1	
6	0	0	0	0	487	1	
7	0	0	0	0	494	1	
8	0	0	0	0	485	0	
9	0	0	0	0	492	1	
10	0	0	0	0	502	1	
11	0	0	0	0	504	1	
12	0	0	0	0	519	1	
13	0	0	0	0	525	1	
14	0	0	0	0	523	1	
15	0	0	0	0	529	1	
0	0	0	0	0	566	1	
1	0	0	0	0	539	1	
2	0	0	0	0	514	1	
3	0	0	0	0	514	1	
4	0	0	0	0	514	1	
5	0	0	0	0	510	1	
6	0	0	0	0	500	1	
7	0	0	0	0	489	1	
8	0	0	0	0	493	1	
9	0	0	0	0	497	1	
10	0	0	0	0	507	1	
11	0	0	0	0	504	1	
12	0	0	0	0	496	1	
13	0	0	0	0	492	1	
14	0	0	0	0	495	1	
15	0	0	0	0	491	0	
0	0	0	0	0	494	1	
1	0	0	0	0	502	1	
2	0	0	0	0	509	1	
3	0	0	0	0	536	1	
4	0	0	0	0	545	1	
5	0	0	0	0	544	1	
6	0	0	0	0	533	1	
7	0	0	0	0	523	0	
8	0	0	0	0	511	1	
9	0	0	0	0	495	1	
10	0	0	0	0	493	1	
11	0	0	0	0	496	1	
12	0	0	0	0	505	1	
13	0	0	0	0	520	1	
14	0	0	0	0	513	1	
15	0	0	0	0	501	0	
0	0	0	0	0	492	1	
1	0	0	0	0	497	1	
2	0	0	0	0	504	1	
3	0	0	0	0	505	1	
4	0	0	0	0	504	1	
5	0	0	0	0	500	1	
6	0	0	0	0	505	1	
7	0	0	0	0	511	1	
8	0	0	0	0	501	1	
9	0	0	0	0	503	1	
10	0	0	0	0	525	1	
11	0	0	0	0	547	1	
12	0	0	0	0	531	1	
13	0	0	0	0	514	1	
14	0	0	0	0	513	1	
15	0	0	0	0	515	1	
0	0	0	0	0	506	1	
1	0	0	0	0	497	1	
2	0	0	0	0	492	1	
3	0	0	0	0	495	1	
4	0	0	0	0	493	1	
5	0	0	0	0	491	0	
6	0	0	0	0	500	1	
7	0	0	0	0	504	1	
8	0	0	0	0	510	1	
9	0	0	0	0	519	1	
10	0	0	0	0	519	1	
11	0	0	0	0	527	1	
12	0	0	0	0	520	0	
13	0	0	0	0	508	1	
14	0	0	0	0	511	1	
15	0	0	0	0	513	1	
0	0	0	0	0	534	1	
1	0	0	0	0	532	1	
2	0	0	0	0	510	1	
3	0	0	0	0	502	1	
4	0	0	0	0	499	0	
5	0	0	0	0	495	1	
6	0	0	0	0	500	1	
7	0	0	0	0	508	1	
8	0	0	0	0	506	1	
9	0	0	0	0	500	1	
10	0	0	0	0	504	1	
11	0	0	0	0	515	1	
12	0	0	0	0	508	0	
13	0	0	0	0	504	1	
14	0	0	0	0	508	1	
15	0	0	0	0	504	1	
0	0	0	0	0	512	1	
1	0	0	0	0	514	1	
2	0	0	0	0	524	1	
3	0	0	0	0	529	1	
4	0	0	0	0	527	1	
5	0	0	0	0	515	1	
6	0	0	0	0	506	1	
7	0	0	0	0	501	1	
8	0	0	0	0	499	1	
9	0	0	0	0	505	1	
10	0	0	0	0	514	1	
11	0	0	0	0	501	1	
12	0	0	0	0	491	1	
13	0	0	0	0	494	1	
14	0	0	0	0	504	1	
15	0	0	0	0	515	1	
0	0	0	0	0	514	1	
1	0	0	0	0	512	1	
2	0	0	0	0	514	1	
3	0	0	0	0	511	1	
4	0	0	0	0	512	0	
5	0	0	0	0	513	1	
6	0	0	0	0	515	1	
7	0	0	0	0	513	1	
8	0	0	0	0	513	1	
9	0	0	0	0	513	1	
10	0	0	0	0	510	1	
11	0	0	0	0	511	1	
12	0	0	0	0	518	0	
13	0	0	0	0	515	1	
14	0	0	0	0	505	1	
15	0	0	0	0	504	1	
0	0	0	0	0	494	1	
1	0	0	0	0	491	1	
2	0	0	0	0	502	1	
3	0	0	0	0	504	1	
4	0	0	0	0	509	0	
5	0	0	0	0	508	1	
6	0	0	0	0	512	1	
7	0	0	0	0	508	1	
8	0	0	0	0	514	1	
9	0	0	0	0	531	1	
10	0	0	0	0	540	1	
11	0	0	0	0	526	1	
12	0	0	0	0	511	1	
13	0	0	0	0	510	1	
14	0	0	0	0	507	1	
15	0	0	0	0	506	1	
0	0	0	0	0	508	1	
1	0	0	0	0	498	1	
2	0	0	0	0	496	1	
3	0	0	0	0	500	1	
4	0	0	0	0	494	1	
5	0	0	0	0	496	0	
6	0	0	0	0	505	1	
7	0	0	0	0	510	1	
8	0	0	0	0	515	1	
9	0	0	0	0	515	1	
10	0	0	0	0	519	1	
11	0	0	0	0	517	1	
12	0	0	0	0	514	1	
13	0	0	0	0	513	1	
14	0	0	0	0	516	1	
15	0	0	0	0	517	0	
0	0	0	0	0	517	1	
1	0	0	0	0	509	1	
2	0	0	0	0	507	1	
3	0	0	0	0	505	1	
4	0	0	0	0	503	1	
5	0	0	0	0	502	1	
6	0	0	0	0	502	1	
7	0	0	0	0	502	0	
8	0	0	0	0	502	1	
9	0	0	0	0	503	1	
10	0	0	0	0	508	1	
11	0	0	0	0	507	1	
12	0	0	0	0	508	1	
13	0	0	0	0	510	1	
14	0	0	0	0	513	1	
15	0	0	0	0	516	0	
0	0	0	0	0	522	1	
1	0	0	0	0	512	1	
2	0	0	0	0	511	1	
3	0	0	0	0	507	1	
4	0	0	0	0	507	1	
5	0	0	0	0	511	1	
6	0	0	0	0	519	1	
7	0	0	0	0	516	1	
8	0	0	0	0	507	1	
9	0	0	0	0	504	1	
10	0	0	0	0	499	1	
11	0	0	0	0	496	1	
12	0	0	0	0	504	1	
13	0	0	0	0	501	1	
14	0	0	0	0	509	1	
15	0	0	0	0	511	1	
0	0	0	0	0	518	1	
1	0	0	0	0	516	1	
2	0	0	0	0	515	1	
3	0	0	0	0	519	1	
4	0	0	0	0	515	1	
5	0	0	0	0	517	1	
6	0	0	0	0	516	1	
7	0	0	0	0	517	1	
8	0	0	0	0	511	1	
9	0	0	0	0	510	1	
10	0	0	0	0	504	1	
11	0	0	0	0	499	1	
12	0	0	0	0	490	1	
13	0	0	0	0	489	1	
14	0	0	0	0	492	1	
15	0	0	0	0	499	1	
0	0	0	0	0	503	1	
1	0	0	0	0	500	1	
2	0	0	0	0	507	1	
3	0	0	0	0	536	1	
4	0	0	0	0	535	1	
5	0	0	0	0	515	1	
6	0	0	0	0	516	1	
7	0	0	0	0	525	1	
8	0	0	0	0	524	1	
9	0	0	0	0	521	1	
10	0	0	0	0	519	1	
11	0	0	0	0	515	1	
12	0	0	0	0	510	1	
13	0	0	0	0	502	1	
14	0	0	0	0	495	1	
15	0	0	0	0	493	1	
0	0	0	0	0	496	1	
1	0	0	0	0	499	1	
2	0	0	0	0	499	1	
3	0	0	0	0	501	1	
4	0	0	0	0	499	1	
5	0	0	0	0	500	1	
6	0	0	0	0	500	1	
7	0	0	0	0	506	1	
8	0	0	0	0	507	1	
9	0	0	0	0	511	1	
10	0	0	0	0	513	1	
11	0	0	0	0	519	1	
12	0	0	0	0	521	1	
13	0	0	0	0	519	1	
14	0	0	0	0	532	1	
15	0	0	0	0	526	1	
0	0	0	0	0	518	1	
1	0	0	0	0	512	1	
2	0	0	0	0	510	1	
3	0	0	0	0	500	1	
4	0	0	0	0	496	1	
5	0	0	0	0	500	1	
6	0	0	0	0	504	1	
7	0	0	0	0	505	0	
8	0	0	0	0	504	1	
9	0	0	0	0	501	1	
10	0	0	0	0	503	1	
11	0	0	0	0	504	1	
12	0	0	0	0	508	1	
13	0	0	0	0	511	1	
14	0	0	0	0	511	1	
15	0	0	0	0	518	0	
0	0	0	0	0	523	1	
1	0	0	0	0	516	1	
2	0	0	0	0	512	1	
3	0	0	0	0	514	1	
4	0	0	0	0	515	1	
5	0	0	0	0	510	1	
6	0	0	0	0	506	1	
7	0	0	0	0	500	0	
8	0	0	0	0	492	1	
9	0	0	0	0	489	1	
10	0	0	0	0	502	1	
11	0	0	0	0	526	1	
12	0	0	0	0	527	1	
13	0	0	0	0	512	1	
14	0	0	0	0	501	1	
15	0	0	0	0	502	1	
0	0	0	0	0	502	1	
1	0	0	0	0	511	1	
2	0	0	0	0	515	1	
3	0	0	0	0	514	1	
4	0	0	0	0	511	1	
5	0	0	0	0	507	1	
6	0	0	0	0	520	1	
7	0	0	0	0	523	1	
8	0	0	0	0	518	1	
9	0	0	0	0	511	1	
10	0	0	0	0	505	1	
11	0	0	0	0	506	1	
12	0	0	0	0	510	1	
13	0	0	0	0	503	1	
14	0	0	0	0	503	1	
15	0	0	0	0	504	1	
0	0	0	0	0	496	1	
1	0	0	0	0	505	1	
2	0	0	0	0	503	1	
3	0	0	0	0	504	1	
4	0	0	0	0	503	0	
5	0	0	0	0	512	1	
6	0	0	0	0	519	1	
7	0	0	0	0	515	1	
8	0	0	0	0	512	1	
9	0	0	0	0	512	1	
10	0	0	0	0	513	1	
11	0	0	0	0	519	1	
12	0	0	0	0	519	0	
13	0	0	0	0	512	1	
14	0	0	0	0	511	1	
15	0	0	0	0	510	1	
0	0	0	0	0	504	1	
1	0	0	0	0	502	1	
2	0	0	0	0	499	1	
3	0	0	0	0	502	1	
4	0	0	0	0	499	0	
5	0	0	0	0	497	1	
6	0	0	0	0	504	1	
7	0	0	0	0	505	1	
8	0	0	0	0	511	1	
9	0	0	0	0	518	1	
10	0	0	0	0	520	1	
11	0	0	0	0	518	1	
12	0	0	0	0	515	1	
13	0	0	0	0	514	1	
14	0	0	0	0	517	1	
15	0	0	0	0	521	1	
0	0	0	0	0	515	1	
1	0	0	0	0	510	1	
2	0	0	0	0	507	1	
3	0	0	0	0	503	1	
4	0	0	0	0	502	1	
5	0	0	0	0	500	1	
6	0	0	0	0	499	1	
7	0	0	0	0	502	1	
8	0	0	0	0	498	1	
9	0	0	0	0	500	1	
10	0	0	0	0	510	1	
11	0	0	0	0	511	1	
12	0	0	0	0	510	1	
13	0	0	0	0	514	1	
14	0	0	0	0	513	1	
15	0	0	0	0	511	1	
0	0	0	0	0	510	1	
1	0	0	0	0	511	1	
2	0	0	0	0	521	1	
3	0	0	0	0	527	1	
4	0	0	0	0	523	0	
5	0	0	0	0	511	1	
6	0	0	0	0	501	1	
7	0	0	0	0	505	1	
8	0	0	0	0	511	1	
9	0	0	0	0	507	1	
10	0	0	0	0	506	1	
11	0	0	0	0	504	1	
12	0	0	0	0	498	0	
13	0	0	0	0	488	1	
14	0	0	0	0	489	1	
15	0	0	0	0	498	1	
0	0	0	0	0	510	1	
1	0	0	0	0	516	1	
2	0	0	0	0	520	1	
3	0	0	0	0	525	1	
4	0	0	0	0	527	1	
5	0	0	0	0	524	1	
6	0	0	0	0	524	1	
7	0	0	0	0	517	1	
8	0	0	0	0	514	1	
9	0	0	0	0	510	1	
10	0	0	0	0	508	1	
11	0	0	0	0	505	1	
12	0	0	0	0	505	1	
13	0	0	0	0	502	1	
14	0	0	0	0	497	1	
15	0	0	0	0	494	1	
0	0	0	0	0	482	1	
1	0	0	0	0	489	1	
2	0	0	0	0	500	1	
3	0	0	0	0	508	1	
4	0	0	0	0	517	1	
5	0	0	0	0	519	1	
6	0	0	0	0	526	1	
7	0	0	0	0	523	1	
8	0	0	0	0	522	1	
9	0	0	0	0	522	1	
10	0	0	0	0	519	1	
11	0	0	0	0	515	1	
12	0	0	0	0	511	1	
13	0	0	0	0	511	1	
14	0	0	0	0	516	1	
15	0	0	0	0	508	0	
0	0	0	0	0	499	1	
1	0	0	0	0	494	1	
2	0	0	0	0	494	1	
3	0	0	0	0	503	1	
4	0	0	0	0	495	1	
5	0	0	0	0	497	1	
6	0	0	0	0	504	1	
7	0	0	0	0	513	0	
8	0	0	0	0	516	1	
9	0	0	0	0	512	1	
10	0	0	0	0	514	1	
11	0	0	0	0	519	1	
12	0	0	0	0	511	1	
13	0	0	0	0	512	1	
14	0	0	0	0	519	1	
15	0	0	0	0	521	1	
0	0	0	0	0	519	1	
1	0	0	0	0	512	1	
2	0	0	0	0	505	1	
3	0	0	0	0	502	1	
4	0	0	0	0	500	1	
5	0	0	0	0	496	1	
6	0	0	0	0	501	1	
7	0	0	0	0	505	1	
8	0	0	0	0	510	1	
9	0	0	0	0	502	1	
10	0	0	0	0	504	1	
11	0	0	0	0	508	1	
12	0	0	0	0	510	1	
13	0	0	0	0	511	1	
14	0	0	0	0	516	1	
15	0	0	0	0	514	1	
0	0	0	0	0	514	1	
1	0	0	0	0	513	1	
2	0	0	0	0	521	1	
3	0	0	0	0	527	1	
4	0	0	0	0	521	1	
5	0	0	0	0	513	1	
6	0	0	0	0	511	1	
7	0	0	0	0	513	1	
8	0	0	0	0	508	1	
9	0	0	0	0	500	1	
10	0	0	0	0	494	1	
11	0	0	0	0	497	1	
12	0	0	0	0	496	1	
13	0	0	0	0	502	1	
14	0	0	0	0	505	1	
15	0	0	0	0	501	1	
0	0	0	0	0	504	1	
1	0	0	0	0	511	1	
2	0	0	0	0	514	1	
3	0	0	0	0	519	1	
4	0	0	0	0	522	1	
5	0	0	0	0	514	1	
6	0	0	0	0	513	1	
7	0	0	0	0	513	1	
8	0	0	0	0	505	1	
9	0	0	0	0	513	1	
10	0	0	0	0	513	1	
11	0	0	0	0	510	1	
12	0	0	0	0	515	1	
13	0	0	0	0	514	1	
14	0	0	0	0	509	1	
15	0	0	0	0	502	1	
0	0	0	0	0	498	1	
1	0	0	0	0	495	1	
2	0	0	0	0	503	1	
3	0	0	0	0	513	1	
4	0	0	0	0	513	1	
5	0	0	0	0	512	1	
6	0	0	0	0	515	1	
7	0	0	0	0	513	1	
8	0	0	0	0	521	1	
9	0	0	0	0	516	1	
10	0	0	0	0	515	1	
11	0	0	0	0	512	1	
12	0	0	0	0	506	1	
13	0	0	0	0	501	1	
14	0	0	0	0	499	1	
15	0	0	0	0	497	1	
0	0	0	0	0	496	1	
1	0	0	0	0	500	1	
2	0	0	0	0	507	1	
3	0	0	0	0	512	1	
4	0	0	0	0	498	1	
5	0	0	0	0	499	1	
6	0	0	0	0	502	1	
7	0	0	0	0	508	0	
8	0	0	0	0	506	1	
9	0	0	0	0	509	1	
10	0	0	0	0	516	1	
11	0	0	0	0	525	1	
12	0	0	0	0	530	1	
13	0	0	0	0	530	1	
14	0	0	0	0	521	1	
15	0	0	0	0	517	0	
0	0	0	0	0	515	1	
1	0	0	0	0	523	1	
2	0	0	0	0	519	1	
3	0	0	0	0	502	1	
4	0	0	0	0	505	1	
5	0	0	0	0	506	1	
6	0	0	0	0	501	1	
7	0	0	0	0	499	1	
8	0	0	0	0	490	1	
9	0	0	0	0	491	1	
10	0	0	0	0	497	1	
11	0	0	0	0	507	1	
12	0	0	0	0	515	1	
13	0	0	0	0	525	1	
14	0	0	0	0	520	1	
15	0	0	0	0	515	1	
0	0	0	0	0	514	1	
1	0	0	0	0	513	1	
2	0	0	0	0	518	1	
3	0	0	0	0	515	1	
4	0	0	0	0	511	1	
5	0	0	0	0	506	1	
6	0	0	0	0	500	1	
7	0	0	0	0	493	1	
8	0	0	0	0	494	1	
9	0	0	0	0	501	1	
10	0	0	0	0	503	1	
11	0	0	0	0	502	1	
12	0	0	0	0	502	0	
13	0	0	0	0	503	1	
14	0	0	0	0	510	1	
15	0	0	0	0	515	1	
0	0	0	0	0	513	1	
1	0	0	0	0	515	1	
2	0	0	0	0	513	1	
3	0	0	0	0	515	1	
4	0	0	0	0	516	0	
5	0	0	0	0	518	1	
6	0	0	0	0	520	1	
7	0	0	0	0	515	1	
8	0	0	0	0	516	1	
9	0	0	0	0	516	1	
10	0	0	0	0	510	1	
11	0	0	0	0	502	1	
12	0	0	0	0	497	0	
13	0	0	0	0	500	1	
14	0	0	0	0	504	1	
15	0	0	0	0	500	1	
0	0	0	0	0	499	1	
1	0	0	0	0	498	1	
2	0	0	0	0	502	1	
3	0	0	0	0	509	1	
4	0	0	0	0	520	1	
5	0	0	0	0	530	1	
6	0	0	0	0	527	1	
7	0	0	0	0	523	1	
8	0	0	0	0	513	1	
9	0	0	0	0	512	1	
10	0	0	0	0	516	1	
11	0	0	0	0	520	1	
12	0	0	0	0	514	1	
13	0	0	0	0	508	1	
14	0	0	0	0	504	1	
15	0	0	0	0	500	1	
0	0	0	0	0	497	1	
1	0	0	0	0	502	1	
2	0	0	0	0	501	1	
3	0	0	0	0	502	1	
4	0	0	0	0	501	1	
5	0	0	0	0	499	1	
6	0	0	0	0	501	1	
7	0	0	0	0	507	1	
8	0	0	0	0	508	1	
9	0	0	0	0	512	1	
10	0	0	0	0	513	1	
11	0	0	0	0	515	1	
12	0	0	0	0	516	0	
13	0	0	0	0	515	1	
14	0	0	0	0	516	1	
15	0	0	0	0	516	1	
0	0	0	0	0	513	1	
1	0	0	0	0	512	1	
2	0	0	0	0	511	1	
3	0	0	0	0	508	1	
4	0	0	0	0	507	0	
5	0	0	0	0	506	1	
6	0	0	0	0	501	1	
7	0	0	0	0	504	1	
8	0	0	0	0	504	1	
9	0	0	0	0	499	1	
10	0	0	0	0	496	1	
11	0	0	0	0	503	1	
12	0	0	0	0	512	0	
13	0	0	0	0	523	1	
14	0	0	0	0	527	1	
15	0	0	0	0	523	1	
0	0	0	0	0	519	1	
1	0	0	0	0	515	1	
2	0	0	0	0	515	1	
3	0	0	0	0	514	1	
4	0	0	0	0	517	1	
5	0	0	0	0	512	1	
6	0	0	0	0	507	1	
7	0	0	0	0	502	1	
8	0	0	0	0	497	1	
9	0	0	0	0	499	1	
10	0	0	0	0	502	1	
11	0	0	0	0	502	1	
12	0	0	0	0	496	1	
13	0	0	0	0	500	1	
14	0	0	0	0	504	1	
15	0	0	0	0	508	1	
0	0	0	0	0	510	1	
1	0	0	0	0	511	1	
2	0	0	0	0	516	1	
3	0	0	0	0	515	1	
4	0	0	0	0	518	1	
5	0	0	0	0	514	1	
6	0	0	0	0	513	1	
7	0	0	0	0	509	0	
8	0	0	0	0	504	1	
9	0	0	0	0	512	1	
10	0	0	0	0	513	1	
11	0	0	0	0	519	1	
12	0	0	0	0	523	1	
13	0	0	0	0	518	1	
14	0	0	0	0	503	1	
15	0	0	0	0	497	0	
0	0	0	0	0	493	1	
1	0	0	0	0	494	1	
2	0	0	0	0	502	1	
3	0	0	0	0	504	1	
4	0	0	0	0	502	1	
5	0	0	0	0	509	1	
6	0	0	0	0	516	1	
7	0	0	0	0	522	0	
8	0	0	0	0	520	1	
9	0	0	0	0	515	1	
10	0	0	0	0	519	1	
11	0	0	0	0	513	1	
12	0	0	0	0	508	1	
13	0	0	0	0	503	1	
14	0	0	0	0	504	1	
15	0	0	0	0	508	1	
0	0	0	0	0	508	1	
1	0	0	0	0	509	1	
2	0	0	0	0	507	1	
3	0	0	0	0	501	1	
4	0	0	0	0	496	1	
5	0	0	0	0	499	1	
6	0	0	0	0	507	1	
7	0	0	0	0	514	1	
8	0	0	0	0	515	1	
9	0	0	0	0	514	1	
10	0	0	0	0	514	1	
11	0	0	0	0	512	1	
12	0	0	0	0	512	1	
13	0	0	0	0	515	1	
14	0	0	0	0	524	1	
15	0	0	0	0	523	1	
0	0	0	0	0	519	1	
1	0	0	0	0	513	1	
2	0	0	0	0	506	1	
3	0	0	0	0	499	1	
4	0	0	0	0	497	1	
5	0	0	0	0	502	1	
6	0	0	0	0	503	1	
7	0	0	0	0	505	1	
8	0	0	0	0	500	1	
9	0	0	0	0	494	1	
10	0	0	0	0	499	1	
11	0	0	0	0	508	1	
12	0	0	0	0	513	1	
13	0	0	0	0	512	1	
14	0	0	0	0	517	1	
15	0	0	0	0	513	1	
0	0	0	0	0	514	1	
1	0	0	0	0	515	1	
2	0	0	0	0	521	1	
3	0	0	0	0	521	1	
4	0	0	0	0	515	1	
5	0	0	0	0	512	1	
6	0	0	0	0	504	1	
7	0	0	0	0	500	1	
8	0	0	0	0	502	1	
9	0	0	0	0	503	1	
10	0	0	0	0	511	1	
11	0	0	0	0	508	1	
12	0	0	0	0	499	1	
13	0	0	0	0	499	1	
14	0	0	0	0	507	1	
15	0	0	0	0	516	1	
0	0	0	0	0	510	1	
1	0	0	0	0	511	1	
2	0	0	0	0	511	1	
3	0	0	0	0	517	1	
4	0	0	0	0	514	1	
5	0	0	0	0	504	1	
6	0	0	0	0	506	1	
7	0	0	0	0	516	1	
8	0	0	0	0	530	1	
9	0	0	0	0	522	1	
10	0	0	0	0	509	1	
11	0	0	0	0	507	1	
12	0	0	0	0	507	1	
13	0	0	0	0	503	1	
14	0	0	0	0	505	1	
15	0	0	0	0	504	0	
0	0	0	0	0	504	1	
1	0	0	0	0	502	1	
2	0	0	0	0	503	1	
3	0	0	0	0	508	1	
4	0	0	0	0	512	1	
5	0	0	0	0	515	1	
6	0	0	0	0	517	1	
7	0	0	0	0	518	0	
8	0	0	0	0	514	1	
9	0	0	0	0	513	1	
10	0	0	0	0	514	1	
11	0	0	0	0	512	1	
12	0	0	0	0	510	1	
13	0	0	0	0	508	1	
14	0	0	0	0	503	1	
15	0	0	0	0	500	0	
0	0	0	0	0	504	1	
1	0	0	0	0	506	1	
2	0	0	0	0	504	1	
3	0	0	0	0	505	1	
4	0	0	0	0	500	1	
5	0	0	0	0	502	1	
6	0	0	0	0	504	1	
7	0	0	0	0	508	1	
8	0	0	0	0	511	1	
9	0	0	0	0	510	1	
10	0	0	0	0	512	1	
11	0	0	0	0	515	1	
12	0	0	0	0	517	1	
13	0	0	0	0	520	1	
14	0	0	0	0	525	1	
15	0	0	0	0	517	1	
0	0	0	0	0	515	1	
1	0	0	0	0	511	1	
2	0	0	0	0	508	1	
3	0	0	0	0	504	1	
4	0	0	0	0	505	1	
5	0	0	0	0	504	1	
6	0	0	0	0	500	1	
7	0	0	0	0	500	1	
8	0	0	0	0	497	1	
9	0	0	0	0	503	1	
10	0	0	0	0	506	1	
11	0	0	0	0	508	1	
12	0	0	0	0	512	0	
13	0	0	0	0	514	1	
14	0	0	0	0	518	1	
15	0	0	0	0	517	1	
0	0	0	0	0	515	1	
1	0	0	0	0	511	1	
2	0	0	0	0	511	1	
3	0	0	0	0	509	1	
4	0	0	0	0	504	0	
5	0	0	0	0	514	1	
6	0	0	0	0	516	1	
7	0	0	0	0	509	1	
8	0	0	0	0	514	1	
9	0	0	0	0	507	1	
10	0	0	0	0	503	1	
11	0	0	0	0	502	1	
12	0	0	0	0	495	1	
13	0	0	0	0	492	1	
14	0	0	0	0	494	1	
15	0	0	0	0	507	1	
0	0	0	0	0	514	1	
1	0	0	0	0	523	1	
2	0	0	0	0	526	1	
3	0	0	0	0	525	1	
4	0	0	0	0	515	1	
5	0	0	0	0	518	1	
6	0	0	0	0	524	1	
7	0	0	0	0	522	1	
8	0	0	0	0	514	1	
9	0	0	0	0	500	1	
10	0	0	0	0	493	1	
11	0	0	0	0	496	1	
12	0	0	0	0	501	1	
13	0	0	0	0	503	1	
14	0	0	0	0	504	1	
15	0	0	0	0	503	1	
0	0	0	0	0	499	1	
1	0	0	0	0	502	1	
2	0	0	0	0	502	1	
3	0	0	0	0	504	1	
4	0	0	0	0	513	0	
5	0	0	0	0	522	1	
6	0	0	0	0	525	1	
7	0	0	0	0	512	1	
8	0	0	0	0	503	1	
9	0	0	0	0	505	1	
10	0	0	0	0	515	1	
11	0	0	0	0	519	1	
12	0	0	0	0	511	0	
13	0	0	0	0	506	1	
14	0	0	0	0	514	1	
15	0	0	0	0	509	1	
0	0	0	0	0	498	1	
1	0	0	0	0	500	1	
2	0	0	0	0	508	1	
3	0	0	0	0	508	1	
4	0	0	0	0	514	0	
5	0	0	0	0	515	1	
6	0	0	0	0	511	1	
7	0	0	0	0	511	1	
8	0	0	0	0	507	1	
9	0	0	0	0	507	1	
10	0	0	0	0	510	1	
11	0	0	0	0	515	1	
12	0	0	0	0	516	1	
13	0	0	0	0	516	1	
14	0	0	0	0	518	1	
15	0	0	0	0	514	1	
0	0	0	0	0	509	1	
1	0	0	0	0	507	1	
2	0	0	0	0	506	1	
3	0	0	0	0	504	1	
4	0	0	0	0	497	1	
5	0	0	0	0	501	1	
6	0	0	0	0	505	1	
7	0	0	0	0	505	1	
8	0	0	0	0	501	1	
9	0	0	0	0	504	1	
10	0	0	0	0	511	1	
11	0	0	0	0	516	1	
12	0	0	0	0	513	1	
13	0	0	0	0	513	1	
14	0	0	0	0	517	1	
15	0	0	0	0	515	0	
0	0	0	0	0	513	1	
1	0	0	0	0	517	1	
2	0	0	0	0	519	1	
3	0	0	0	0	521	1	
4	0	0	0	0	515	1	
5	0	0	0	0	507	1	
6	0	0	0	0	502	1	
7	0	0	0	0	502	0	
8	0	0	0	0	501	1	
9	0	0	0	0	494	1	
10	0	0	0	0	496	1	
11	0	0	0	0	497	1	
12	0	0	0	0	504	1	
13	0	0	0	0	503	1	
14	0	0	0	0	503	1	
15	0	0	0	0	507	0	
0	0	0	0	0	513	1	
1	0	0	0	0	514	1	
2	0	0	0	0	516	1	
3	0	0	0	0	522	1	
4	0	0	0	0	527	1	
5	0	0	0	0	520	1	
6	0	0	0	0	524	1	
7	0	0	0	0	516	1	
8	0	0	0	0	509	1	
9	0	0	0	0	501	1	
10	0	0	0	0	503	1	
11	0	0	0	0	504	1	
12	0	0	0	0	513	1	
13	0	0	0	0	505	1	
14	0	0	0	0	501	1	
15	0	0	0	0	500	1	
0	0	0	0	0	499	1	
1	0	0	0	0	502	1	
2	0	0	0	0	495	1	
3	0	0	0	0	501	1	
4	0	0	0	0	506	1	
5	0	0	0	0	517	1	
6	0	0	0	0	527	1	
7	0	0	0	0	516	1	
8	0	0	0	0	517	1	
9	0	0	0	0	526	1	
10	0	0	0	0	533	1	
11	0	0	0	0	523	1	
12	0	0	0	0	517	1	
13	0	0	0	0	507	1	
14	0	0	0	0	503	1	
15	0	0	0	0	498	1	
0	0	0	0	0	500	1	
1	0	0	0	0	504	1	
2	0	0	0	0	505	1	
3	0	0	0	0	503	1	
4	0	0	0	0	503	1	
5	0	0	0	0	496	1	
6	0	0	0	0	494	1	
7	0	0	0	0	490	1	
8	0	0	0	0	502	1	
9	0	0	0	0	513	1	
10	0	0	0	0	520	1	
11	0	0	0	0	525	1	
12	0	0	0	0	520	1	
13	0	0	0	0	523	1	
14	0	0	0	0	522	1	
15	0	0	0	0	515	1	
0	0	0	0	0	510	1	
1	0	0	0	0	510	1	
2	0	0	0	0	507	1	
3	0	0	0	0	504	1	
4	0	0	0	0	504	1	
5	0	0	0	0	501	1	
6	0	0	0	0	499	1	
7	0	0	0	0	503	1	
8	0	0	0	0	503	1	
9	0	0	0	0	503	1	
10	0	0	0	0	508	1	
11	0	0	0	0	512	1	
12	0	0	0	0	510	1	
13	0	0	0	0	515	1	
14	0	0	0	0	520	1	
15	0	0	0	0	523	1	
0	0	0	0	0	517	1	
1	0	0	0	0	515	1	
2	0	0	0	0	519	1	
3	0	0	0	0	519	1	
4	0	0	0	0	516	1	
5	0	0	0	0	513	1	
6	0	0	0	0	507	1	
7	0	0	0	0	502	0	
8	0	0	0	0	498	1	
9	0	0	0	0	496	1	
10	0	0	0	0	498	1	
11	0	0	0	0	504	1	
12	0	0	0	0	503	1	
13	0	0	0	0	501	1	
14	0	0	0	0	503	1	
15	0	0	0	0	506	0	
0	0	0	0	0	510	1	
1	0	0	0	0	515	1	
2	0	0	0	0	519	1	
3	0	0	0	0	512	1	
4	0	0	0	0	509	1	
5	0	0	0	0	513	1	
6	0	0	0	0	514	1	
7	0	0	0	0	524	0	
8	0	0	0	0	526	1	
9	0	0	0	0	516	1	
10	0	0	0	0	511	1	
11	0	0	0	0	504	1	
12	0	0	0	0	498	1	
13	0	0	0	0	500	1	
14	0	0	0	0	504	1	
15	0	0	0	0	498	1	
0	0	0	0	0	496	1	
1	0	0	0	0	502	1	
2	0	0	0	0	504	1	
3	0	0	0	0	508	1	
4	0	0	0	0	513	1	
5	0	0	0	0	516	1	
6	0	0	0	0	519	1	
7	0	0	0	0	519	1	
8	0	0	0	0	512	1	
9	0	0	0	0	510	1	
10	0	0	0	0	516	1	
11	0	0	0	0	515	1	
12	0	0	0	0	513	1	
13	0	0	0	0	520	1	
14	0	0	0	0	518	1	
15	0	0	0	0	505	1	
0	0	0	0	0	496	1	
1	0	0	0	0	502	1	
2	0	0	0	0	505	1	
3	0	0	0	0	496	1	
4	0	0	0	0	493	0	
5	0	0	0	0	495	1	
6	0	0	0	0	504	1	
7	0	0	0	0	507	1	
8	0	0	0	0	512	1	
9	0	0	0	0	517	1	
10	0	0	0	0	515	1	
11	0	0	0	0	520	1	
12	0	0	0	0	519	0	
13	0	0	0	0	518	1	
14	0	0	0	0	529	1	
15	0	0	0	0	525	1	
0	0	0	0	0	507	1	
1	0	0	0	0	499	1	
2	0	0	0	0	504	1	
3	0	0	0	0	503	1	
4	0	0	0	0	499	0	
5	0	0	0	0	500	1	
6	0	0	0	0	498	1	
7	0	0	0	0	509	1	
8	0	0	0	0	507	1	
9	0	0	0	0	502	1	
10	0	0	0	0	510	1	
11	0	0	0	0	515	1	
12	0	0	0	0	513	1	
13	0	0	0	0	515	1	
14	0	0	0	0	511	1	
15	0	0	0	0	510	1	
0	0	0	0	0	512	1	
1	0	0	0	0	513	1	
2	0	0	0	0	515	1	
3	0	0	0	0	517	1	
4	0	0	0	0	511	1	
5	0	0	0	0	506	1	
6	0	0	0	0	509	1	
7	0	0	0	0	509	1	
8	0	0	0	0	504	1	
9	0	0	0	0	509	1	
10	0	0	0	0	506	1	
11	0	0	0	0	505	1	
12	0	0	0	0	508	1	
13	0	0	0	0	506	1	
14	0	0	0	0	499	1	
15	0	0	0	0	508	1	
0	0	0	0	0	511	1	
1	0	0	0	0	508	1	
2	0	0	0	0	514	1	
3	0	0	0	0	514	1	
4	0	0	0	0	514	0	
5	0	0	0	0	516	1	
6	0	0	0	0	516	1	
7	0	0	0	0	515	1	
8	0	0	0	0	510	1	
9	0	0	0	0	507	1	
10	0	0	0	0	506	1	
11	0	0	0	0	506	1	
12	0	0	0	0	504	0	
13	0	0	0	0	508	1	
14	0	0	0	0	504	1	
15	0	0	0	0	503	1	
0	0	0	0	0	502	1	
1	0	0	0	0	505	1	
2	0	0	0	0	509	1	
3	0	0	0	0	505	1	
4	0	0	0	0	509	1	
5	0	0	0	0	510	1	
6	0	0	0	0	513	1	
7	0	0	0	0	515	1	
8	0	0	0	0	514	1	
9	0	0	0	0	515	1	
10	0	0	0	0	521	1	
11	0	0	0	0	523	1	
12	0	0	0	0	517	1	
13	0	0	0	0	510	1	
14	0	0	0	0	508	1	
15	0	0	0	0	505	1	
0	0	0	0	0	499	1	
1	0	0	0	0	499	1	
2	0	0	0	0	504	1	
3	0	0	0	0	504	1	
4	0	0	0	0	499	1	
5	0	0	0	0	501	1	
6	0	0	0	0	506	1	
7	0	0	0	0	510	1	
8	0	0	0	0	508	1	
9	0	0	0	0	511	1	
10	0	0	0	0	512	1	
11	0	0	0	0	516	1	
12	0	0	0	0	521	1	
13	0	0	0	0	518	1	
14	0	0	0	0	518	1	
15	0	0	0	0	520	0	
0	0	0	0	0	515	1	
1	0	0	0	0	514	1	
2	0	0	0	0	513	1	
3	0	0	0	0	503	1	
4	0	0	0	0	500	1	
5	0	0	0	0	506	1	
6	0	0	0	0	502	1	
7	0	0	0	0	499	0	
8	0	0	0	0	499	1	
9	0	0	0	0	503	1	
10	0	0	0	0	502	1	
11	0	0	0	0	505	1	
12	0	0	0	0	514	1	
13	0	0	0	0	519	1	
14	0	0	0	0	509	1	
15	0	0	0	0	503	1	
0	0	0	0	0	502	1	
1	0	0	0	0	514	1	
2	0	0	0	0	526	1	
3	0	0	0	0	524	1	
4	0	0	0	0	516	1	
5	0	0	0	0	509	1	
6	0	0	0	0	507	1	
7	0	0	0	0	504	1	
8	0	0	0	0	504	1	
9	0	0	0	0	507	1	
10	0	0	0	0	505	1	
11	0	0	0	0	508	1	
12	0	0	0	0	505	1	
13	0	0	0	0	503	1	
14	0	0	0	0	507	1	
15	0	0	0	0	509	1	
0	0	0	0	0	511	1	
1	0	0	0	0	511	1	
2	0	0	0	0	514	1	
3	0	0	0	0	515	1	
4	0	0	0	0	513	1	
5	0	0	0	0	514	1	
6	0	0	0	0	518	1	
7	0	0	0	0	516	1	
8	0	0	0	0	510	1	
9	0	0	0	0	506	1	
10	0	0	0	0	510	1	
11	0	0	0	0	507	1	
12	0	0	0	0	509	1	
13	0	0	0	0	507	1	
14	0	0	0	0	508	1	
15	0	0	0	0	505	1	
0	0	0	0	0	500	1	
1	0	0	0	0	498	1	
2	0	0	0	0	502	1	
3	0	0	0	0	504	1	
4	0	0	0	0	512	1	
5	0	0	0	0	515	1	
6	0	0	0	0	519	1	
7	0	0	0	0	516	1	
8	0	0	0	0	513	1	
9	0	0	0	0	515	1	
10	0	0	0	0	516	1	
11	0	0	0	0	513	1	
12	0	0	0	0	511	1	
13	0	0	0	0	511	1	
14	0	0	0	0	505	1	
15	0	0	0	0	503	1	
0	0	0	0	0	507	1	
1	0	0	0	0	514	1	
2	0	0	0	0	513	1	
3	0	0	0	0	518	1	
4	0	0	0	0	512	1	
5	0	0	0	0	495	1	
6	0	0	0	0	479	1	
7	0	0	0	0	481	1	
8	0	0	0	0	499	1	
9	0	0	0	0	509	1	
10	0	0	0	0	519	1	
11	0	0	0	0	529	1	
12	0	0	0	0	524	1	
13	0	0	0	0	524	1	
14	0	0	0	0	524	1	
15	0	0	0	0	530	1	
0	0	0	0	0	527	1	
1	0	0	0	0	508	1	
2	0	0	0	0	500	1	
3	0	0	0	0	492	1	
4	0	0	0	0	491	1	
5	0	0	0	0	489	1	
6	0	0	0	0	495	1	
7	0	0	0	0	507	0	
8	0	0	0	0	502	1	
9	0	0	0	0	504	1	
10	0	0	0	0	509	1	
11	0	0	0	0	505	1	
12	0	0	0	0	510	1	
13	0	0	0	0	517	1	
14	0	0	0	0	518	1	
15	0	0	0	0	522	0	
0	0	0	0	0	521	1	
1	0	0	0	0	515	1	
2	0	0	0	0	517	1	
3	0	0	0	0	519	1	
4	0	0	0	0	507	1	
5	0	0	0	0	504	1	
6	0	0	0	0	509	1	
7	0	0	0	0	507	1	
8	0	0	0	0	498	1	
9	0	0	0	0	492	1	
10	0	0	0	0	499	1	
11	0	0	0	0	504	1	
12	0	0	0	0	505	1	
13	0	0	0	0	509	1	
14	0	0	0	0	516	1	
15	0	0	0	0	518	1	
0	0	0	0	0	519	1	
1	0	0	0	0	528	1	
2	0	0	0	0	530	1	
3	0	0	0	0	513	1	
4	0	0	0	0	508	1	
5	0	0	0	0	505	1	
6	0	0	0	0	509	1	
7	0	0	0	0	505	1	
8	0	0	0	0	503	1	
9	0	0	0	0	502	1	
10	0	0	0	0	501	1	
11	0	0	0	0	504	1	
12	0	0	0	0	508	0	
13	0	0	0	0	508	1	
14	0	0	0	0	508	1	
15	0	0	0	0	504	1	
0	0	0	0	0	502	1	
1	0	0	0	0	503	1	
2	0	0	0	0	508	1	
3	0	0	0	0	511	1	
4	0	0	0	0	514	0	
5	0	0	0	0	515	1	
6	0	0	0	0	515	1	
7	0	0	0	0	510	1	
8	0	0	0	0	513	1	
9	0	0	0	0	516	1	
10	0	0	0	0	519	1	
11	0	0	0	0	518	1	
12	0	0	0	0	521	0	
13	0	0	0	0	514	1	
14	0	0	0	0	511	1	
15	0	0	0	0	504	1	
0	0	0	0	0	497	1	
1	0	0	0	0	497	1	
2	0	0	0	0	499	1	
3	0	0	0	0	505	1	
4	0	0	0	0	500	1	
5	0	0	0	0	498	1	
6	0	0	0	0	504	1	
7	0	0	0	0	510	1	
8	0	0	0	0	511	1	
9	0	0	0	0	514	1	
10	0	0	0	0	515	1	
11	0	0	0	0	513	1	
12	0	0	0	0	515	1	
13	0	0	0	0	517	1	
14	0	0	0	0	522	1	
15	0	0	0	0	516	1	
0	0	0	0	0	511	1	
1	0	0	0	0	510	1	
2	0	0	0	0	504	1	
3	0	0	0	0	504	1	
4	0	0	0	0	510	1	
5	0	0	0	0	510	1	
6	0	0	0	0	507	1	
7	0	0	0	0	500	1	
8	0	0	0	0	500	1	
9	0	0	0	0	493	1	
10	0	0	0	0	494	1	
11	0	0	0	0	508	1	
12	0	0	0	0	511	0	
13	0	0	0	0	512	1	
14	0	0	0	0	519	1	
15	0	0	0	0	523	1	
0	0	0	0	0	524	1	
1	0	0	0	0	515	1	
2	0	0	0	0	516	1	
3	0	0	0	0	524	1	
4	0	0	0	0	523	0	
5	0	0	0	0	516	1	
6	0	0	0	0	511	1	
7	0	0	0	0	486	1	
8	0	0	0	0	472	1	
9	0	0	0	0	489	1	
10	0	0	0	0	508	1	
11	0	0	0	0	513	1	
12	0	0	0	0	512	0	
13	0	0	0	0	504	1	
14	0	0	0	0	503	1	
15	0	0	0	0	509	1	
0	0	0	0	0	501	1	
1	0	0	0	0	510	1	
2	0	0	0	0	515	1	
3	0	0	0	0	512	1	
4	0	0	0	0	508	1	
5	0	0	0	0	516	1	
6	0	0	0	0	528	1	
7	0	0	0	0	527	1	
8	0	0	0	0	514	1	
9	0	0	0	0	511	1	
10	0	0	0	0	500	1	
11	0	0	0	0	494	1	
12	0	0	0	0	505	1	
13	0	0	0	0	510	1	
14	0	0	0	0	510	1	
15	0	0	0	0	510	1	
0	0	0	0	0	508	1	
1	0	0	0	0	504	1	
2	0	0	0	0	501	1	
3	0	0	0	0	507	1	
4	0	0	0	0	504	1	
5	0	0	0	0	508	1	
6	0	0	0	0	516	1	
7	0	0	0	0	520	0	
8	0	0	0	0	521	1	
9	0	0	0	0	520	1	
10	0	0	0	0	527	1	
11	0	0	0	0	521	1	
12	0	0	0	0	512	1	
13	0	0	0	0	512	1	
14	0	0	0	0	504	1	
15	0	0	0	0	499	0	
0	0	0	0	0	492	1	
1	0	0	0	0	493	1	
2	0	0	0	0	502	1	
3	0	0	0	0	503	1	
4	0	0	0	0	502	1	
5	0	0	0	0	508	1	
6	0	0	0	0	505	1	
7	0	0	0	0	506	0	
8	0	0	0	0	507	1	
9	0	0	0	0	514	1	
10	0	0	0	0	515	1	
11	0	0	0	0	515	1	
12	0	0	0	0	519	1	
13	0	0	0	0	526	1	
14	0	0	0	0	531	1	
15	0	0	0	0	519	1	
0	0	0	0	0	507	1	
1	0	0	0	0	505	1	
2	0	0	0	0	499	1	
3	0	0	0	0	504	1	
4	0	0	0	0	507	1	
5	0	0	0	0	505	1	
6	0	0	0	0	505	1	
7	0	0	0	0	509	1	
8	0	0	0	0	500	1	
9	0	0	0	0	499	1	
10	0	0	0	0	495	1	
11	0	0	0	0	495	1	
12	0	0	0	0	504	1	
13	0	0	0	0	514	1	
14	0	0	0	0	521	1	
15	0	0	0	0	522	1	
0	0	0	0	0	512	1	
1	0	0	0	0	515	1	
2	0	0	0	0	525	1	
3	0	0	0	0	517	1	
4	0	0	0	0	513	1	
5	0	0	0	0	514	1	
6	0	0	0	0	517	1	
7	0	0	0	0	501	1	
8	0	0	0	0	496	1	
9	0	0	0	0	500	1	
10	0	0	0	0	501	1	
11	0	0	0	0	499	1	
12	0	0	0	0	504	1	
13	0	0	0	0	499	1	
14	0	0	0	0	508	1	
15	0	0	0	0	513	1	
0	0	0	0	0	516	1	
1	0	0	0	0	515	1	
2	0	0	0	0	508	1	
3	0	0	0	0	511	1	
4	0	0	0	0	514	1	
5	0	0	0	0	518	1	
6	0	0	0	0	524	1	
7	0	0	0	0	525	1	
8	0	0	0	0	515	1	
9	0	0	0	0	509	1	
10	0	0	0	0	502	1	
11	0	0	0	0	498	1	
12	0	0	0	0	497	1	
13	0	0	0	0	502	1	
14	0	0	0	0	499	1	
15	0	0	0	0	496	1	
0	0	0	0	0	500	1	
1	0	0	0	0	501	1	
2	0	0	0	0	507	1	
3	0	0	0	0	511	1	
4	0	0	0	0	518	1	
5	0	0	0	0	523	1	
6	0	0	0	0	521	1	
7	0	0	0	0	507	1	
8	0	0	0	0	510	1	
9	0	0	0	0	513	1	
10	0	0	0	0	520	1	
11	0	0	0	0	519	1	
12	0	0	0	0	526	1	
13	0	0	0	0	527	1	
14	0	0	0	0	526	1	
15	0	0	0	0	518	0	
0	0	0	0	0	499	1	
1	0	0	0	0	493	1	
2	0	0	0	0	488	1	
3	0	0	0	0	478	1	
4	0	0	0	0	484	1	
5	0	0	0	0	487	1	
6	0	0	0	0	495	1	
7	0	0	0	0	502	0	
8	0	0	0	0	515	1	
9	0	0	0	0	519	1	
10	0	0	0	0	520	1	
11	0	0	0	0	523	1	
12	0	0	0	0	521	1	
13	0	0	0	0	519	1	
14	0	0	0	0	519	1	
15	0	0	0	0	518	0	
0	0	0	0	0	514	1	
1	0	0	0	0	508	1	
2	0	0	0	0	511	1	
3	0	0	0	0	506	1	
4	0	0	0	0	507	1	
5	0	0	0	0	506	1	
6	0	0	0	0	503	1	
7	0	0	0	0	511	1	
8	0	0	0	0	504	1	
9	0	0	0	0	491	1	
10	0	0	0	0	499	1	
11	0	0	0	0	508	1	
12	0	0	0	0	515	1	
13	0	0	0	0	520	1	
14	0	0	0	0	519	1	
15	0	0	0	0	524	1	
0	0	0	0	0	524	1	
1	0	0	0	0	509	1	
2	0	0	0	0	513	1	
3	0	0	0	0	515	1	
4	0	0	0	0	510	1	
5	0	0	0	0	504	1	
6	0	0	0	0	508	1	
7	0	0	0	0	502	1	
8	0	0	0	0	499	1	
9	0	0	0	0	496	1	
10	0	0	0	0	498	1	
11	0	0	0	0	505	1	
12	0	0	0	0	503	0	
13	0	0	0	0	500	1	
14	0	0	0	0	506	1	
15	0	0	0	0	513	1	
0	0	0	0	0	523	1	
1	0	0	0	0	523	1	
2	0	0	0	0	516	1	
3	0	0	0	0	517	1	
4	0	0	0	0	525	0	
5	0	0	0	0	523	1	
6	0	0	0	0	519	1	
7	0	0	0	0	508	1	
8	0	0	0	0	504	1	
9	0	0	0	0	509	1	
10	0	0	0	0	501	1	
11	0	0	0	0	500	1	
12	0	0	0	0	507	1	
13	0	0	0	0	506	1	
14	0	0	0	0	509	1	
15	0	0	0	0	516	1	
0	0	0	0	0	489	1	
1	0	0	0	0	483	1	
2	0	0	0	0	494	1	
3	0	0	0	0	504	1	
4	0	0	0	0	511	1	
5	0	0	0	0	516	1	
6	0	0	0	0	519	1	
7	0	0	0	0	524	1	
8	0	0	0	0	524	1	
9	0	0	0	0	520	1	
10	0	0	0	0	523	1	
11	0	0	0	0	515	1	
12	0	0	0	0	500	1	
13	0	0	0	0	492	1	
14	0	0	0	0	502	1	
15	0	0	0	0	508	1	
0	0	0	0	0	512	1	
1	0	0	0	0	509	1	
2	0	0	0	0	511	1	
3	0	0	0	0	516	1	
4	0	0	0	0	503	0	
5	0	0	0	0	504	1	
6	0	0	0	0	510	1	
7	0	0	0	0	509	1	
8	0	0	0	0	499	1	
9	0	0	0	0	508	1	
10	0	0	0	0	514	1	
11	0	0	0	0	515	1	
12	0	0	0	0	522	0	
13	0	0	0	0	521	1	
14	0	0	0	0	516	1	
15	0	0	0	0	513	1	
0	0	0	0	0	516	1	
1	0	0	0	0	519	1	
2	0	0	0	0	515	1	
3	0	0	0	0	507	1	
4	0	0	0	0	498	0	
5	0	0	0	0	485	1	
6	0	0	0	0	489	1	
7	0	0	0	0	501	1	
8	0	0	0	0	502	1	
9	0	0	0	0	507	1	
10	0	0	0	0	507	1	
11	0	0	0	0	508	1	
12	0	0	0	0	507	1	
13	0	0	0	0	515	1	
14	0	0	0	0	515	1	
15	0	0	0	0	519	1	
0	0	0	0	0	523	1	
1	0	0	0	0	524	1	
2	0	0	0	0	520	1	
3	0	0	0	0	514	1	
4	0	0	0	0	505	1	
5	0	0	0	0	502	1	
6	0	0	0	0	495	1	
7	0	0	0	0	487	1	
8	0	0	0	0	505	1	
9	0	0	0	0	514	1	
10	0	0	0	0	512	1	
11	0	0	0	0	517	1	
12	0	0	0	0	509	1	
13	0	0	0	0	493	1	
14	0	0	0	0	507	1	
15	0	0	0	0	512	0	
0	0	0	0	0	513	1	
1	0	0	0	0	518	1	
2	0	0	0	0	519	1	
3	0	0	0	0	510	1	
4	0	0	0	0	515	1	
5	0	0	0	0	506	1	
6	0	0	0	0	497	1	
7	0	0	0	0	511	0	
8	0	0	0	0	516	1	
9	0	0	0	0	517	1	
10	0	0	0	0	516	1	
11	0	0	0	0	514	1	
12	0	0	0	0	516	1	
13	0	0	0	0	511	1	
14	0	0	0	0	490	1	
15	0	0	0	0	489	0	
0	0	0	0	0	498	1	
1	0	0	0	0	504	1	
2	0	0	0	0	504	1	
3	0	0	0	0	509	1	
4	0	0	0	0	505	1	
5	0	0	0	0	516	1	
6	0	0	0	0	515	1	
7	0	0	0	0	518	1	
8	0	0	0	0	516	1	
9	0	0	0	0	513	1	
10	0	0	0	0	513	1	
11	0	0	0	0	520	1	
12	0	0	0	0	524	1	
13	0	0	0	0	521	1	
14	0	0	0	0	503	1	
15	0	0	0	0	502	1	
0	0	0	0	0	503	1	
1	0	0	0	0	503	1	
2	0	0	0	0	505	1	
3	0	0	0	0	501	1	
4	0	0	0	0	504	1	
5	0	0	0	0	505	1	
6	0	0	0	0	503	1	
7	0	0	0	0	511	1	
8	0	0	0	0	507	1	
9	0	0	0	0	500	1	
10	0	0	0	0	514	1	
11	0	0	0	0	522	1	
12	0	0	0	0	513	1	
13	0	0	0	0	510	1	
14	0	0	0	0	513	1	
15	0	0	0	0	509	1	
0	0	0	0	0	511	1	
1	0	0	0	0	512	1	
2	0	0	0	0	511	1	
3	0	0	0	0	504	1	
4	0	0	0	0	498	1	
5	0	0	0	0	505	1	
6	0	0	0	0	512	1	
7	0	0	0	0	506	1	
8	0	0	0	0	511	1	
9	0	0	0	0	509	1	
10	0	0	0	0	515	1	
11	0	0	0	0	521	1	
12	0	0	0	0	511	1	
13	0	0	0	0	503	1	
14	0	0	0	0	507	1	
15	0	0	0	0	504	1	
0	0	0	0	0	502	1	
1	0	0	0	0	515	1	
2	0	0	0	0	524	1	
3	0	0	0	0	521	1	
4	0	0	0	0	519	1	
5	0	0	0	0	511	1	
6	0	0	0	0	497	1	
7	0	0	0	0	499	1	
8	0	0	0	0	503	1	
9	0	0	0	0	504	1	
10	0	0	0	0	504	1	
11	0	0	0	0	507	1	
12	0	0	0	0	497	1	
13	0	0	0	0	503	1	
14	0	0	0	0	510	1	
15	0	0	0	0	511	1	
0	0	0	0	0	514	1	
1	0	0	0	0	514	1	
2	0	0	0	0	509	1	
3	0	0	0	0	509	1	
4	0	0	0	0	516	1	
5	0	0	0	0	514	1	
6	0	0	0	0	521	1	
7	0	0	0	0	525	0	
8	0	0	0	0	523	1	
9	0	0	0	0	516	1	
10	0	0	0	0	515	1	
11	0	0	0	0	502	1	
12	0	0	0	0	502	1	
13	0	0	0	0	502	1	
14	0	0	0	0	498	1	
15	0	0	0	0	496	0	
0	0	0	0	0	496	1	
1	0	0	0	0	492	1	
2	0	0	0	0	496	1	
3	0	0	0	0	507	1	
4	0	0	0	0	516	1	
5	0	0	0	0	520	1	
6	0	0	0	0	516	1	
7	0	0	0	0	513	0	
8	0	0	0	0	515	1	
9	0	0	0	0	515	1	
10	0	0	0	0	514	1	
11	0	0	0	0	519	1	
12	0	0	0	0	515	1	
13	0	0	0	0	510	1	
14	0	0	0	0	514	1	
15	0	0	0	0	514	1	
0	0	0	0	0	504	1	
1	0	0	0	0	498	1	
2	0	0	0	0	506	1	
3	0	0	0	0	510	1	
4	0	0	0	0	496	1	
5	0	0	0	0	499	0	
6	0	0	0	0	506	1	
7	0	0	0	0	521	1	
8	0	0	0	0	512	1	
9	0	0	0	0	504	1	
10	0	0	0	0	506	1	
11	0	0	0	0	510	1	
12	0	0	0	0	512	1	
13	0	0	0	0	513	1	
14	0	0	0	0	518	1	
15	0	0	0	0	518	1	
0	0	0	0	0	516	1	
1	0	0	0	0	520	1	
2	0	0	0	0	515	1	
3	0	0	0	0	510	1	
4	0	0	0	0	507	0	
5	0	0	0	0	501	1	
6	0	0	0	0	496	1	
7	0	0	0	0	495	1	
8	0	0	0	0	495	1	
9	0	0	0	0	492	1	
10	0	0	0	0	504	1	
11	0	0	0	0	519	1	
12	0	0	0	0	517	0	
13	0	0	0	0	515	1	
14	0	0	0	0	511	1	
15	0	0	0	0	514	1	
0	0	0	0	0	516	1	
1	0	0	0	0	521	1	
2	0	0	0	0	528	1	
3	0	0	0	0	526	1	
4	0	0	0	0	508	0	
5	0	0	0	0	502	1	
6	0	0	0	0	496	1	
7	0	0	0	0	510	1	
8	0	0	0	0	518	1	
9	0	0	0	0	502	1	
10	0	0	0	0	483	1	
11	0	0	0	0	481	1	
12	0	0	0	0	489	1	
13	0	0	0	0	499	1	
14	0	0	0	0	513	1	
15	0	0	0	0	517	1	
0	0	0	0	0	523	1	
1	0	0	0	0	523	1	
2	0	0	0	0	520	1	
3	0	0	0	0	518	1	
4	0	0	0	0	519	1	
5	0	0	0	0	519	1	
6	0	0	0	0	521	1	
7	0	0	0	0	516	1	
8	0	0	0	0	510	1	
9	0	0	0	0	500	1	
10	0	0	0	0	500	1	
11	0	0	0	0	499	1	
12	0	0	0	0	504	0	
13	0	0	0	0	504	1	
14	0	0	0	0	504	1	
15	0	0	0	0	503	1	
0	0	0	0	0	500	1	
1	0	0	0	0	501	1	
2	0	0	0	0	507	1	
3	0	0	0	0	509	1	
4	0	0	0	0	511	0	
5	0	0	0	0	513	1	
6	0	0	0	0	515	1	
7	0	0	0	0	518	1	
8	0	0	0	0	517	1	
9	0	0	0	0	519	1	
10	0	0	0	0	519	1	
11	0	0	0	0	517	1	
12	0	0	0	0	511	0	
13	0	0	0	0	507	1	
14	0	0	0	0	505	1	
15	0	0	0	0	503	1	
0	0	0	0	0	501	1	
1	0	0	0	0	502	1	
2	0	0	0	0	502	1	
3	0	0	0	0	502	1	
4	0	0	0	0	504	1	
5	0	0	0	0	506	1	
6	0	0	0	0	508	1	
7	0	0	0	0	512	1	
8	0	0	0	0	515	1	
9	0	0	0	0	511	1	
10	0	0	0	0	508	1	
11	0	0	0	0	514	1	
12	0	0	0	0	513	1	
13	0	0	0	0	514	1	
14	0	0	0	0	518	1	
15	0	0	0	0	519	1	
0	0	0	0	0	519	1	
1	0	0	0	0	513	1	
2	0	0	0	0	508	1	
3	0	0	0	0	503	1	
4	0	0	0	0	503	1	
5	0	0	0	0	501	1	
6	0	0	0	0	505	1	
7	0	0	0	0	504	1	
8	0	0	0	0	499	1	
9	0	0	0	0	500	1	
10	0	0	0	0	504	1	
11	0	0	0	0	508	1	
12	0	0	0	0	510	1	
13	0	0	0	0	513	1	
14	0	0	0	0	517	1	
15	0	0	0	0	515	0	
0	0	0	0	0	518	1	
1	0	0	0	0	514	1	
2	0	0	0	0	513	1	
3	0	0	0	0	513	1	
4	0	0	0	0	510	1	
5	0	0	0	0	508	1	
6	0	0	0	0	509	1	
7	0	0	0	0	504	0	
8	0	0	0	0	503	1	
9	0	0	0	0	499	1	
10	0	0	0	0	498	1	
11	0	0	0	0	503	1	
12	0	0	0	0	500	1	
13	0	0	0	0	504	1	
14	0	0	0	0	514	1	
15	0	0	0	0	520	1	
0	0	0	0	0	518	1	
1	0	0	0	0	518	1	
2	0	0	0	0	531	1	
3	0	0	0	0	526	1	
4	0	0	0	0	518	1	
5	0	0	0	0	512	1	
6	0	0	0	0	509	1	
7	0	0	0	0	505	1	
8	0	0	0	0	501	1	
9	0	0	0	0	495	1	
10	0	0	0	0	500	1	
11	0	0	0	0	500	1	
12	0	0	0	0	505	1	
13	0	0	0	0	504	1	
14	0	0	0	0	503	1	
15	0	0	0	0	504	1	
0	0	0	0	0	506	1	
1	0	0	0	0	511	1	
2	0	0	0	0	518	1	
3	0	0	0	0	521	1	
4	0	0	0	0	510	1	
5	0	0	0	0	512	1	
6	0	0	0	0	524	1	
7	0	0	0	0	529	1	
8	0	0	0	0	512	1	
9	0	0	0	0	513	1	
10	0	0	0	0	513	1	
11	0	0	0	0	502	1	
12	0	0	0	0	504	1	
13	0	0	0	0	505	1	
14	0	0	0	0	502	1	
15	0	0	0	0	508	1	
0	0	0	0	0	507	1	
1	0	0	0	0	497	1	
2	0	0	0	0	493	1	
3	0	0	0	0	504	1	
4	0	0	0	0	505	1	
5	0	0	0	0	503	1	
6	0	0	0	0	503	1	
7	0	0	0	0	509	1	
8	0	0	0	0	514	1	
9	0	0	0	0	521	1	
10	0	0	0	0	519	1	
11	0	0	0	0	519	1	
12	0	0	0	0	516	1	
13	0	0	0	0	517	1	
14	0	0	0	0	523	1	
15	0	0	0	0	521	1	
0	0	0	0	0	516	1	
1	0	0	0	0	507	1	
2	0	0	0	0	499	1	
3	0	0	0	0	497	1	
4	0	0	0	0	499	1	
5	0	0	0	0	502	1	
6	0	0	0	0	505	1	
7	0	0	0	0	504	1	
8	0	0	0	0	501	1	
9	0	0	0	0	504	1	
10	0	0	0	0	511	1	
11	0	0	0	0	508	1	
12	0	0	0	0	512	1	
13	0	0	0	0	515	1	
14	0	0	0	0	513	1	
15	0	0	0	0	513	0	
0	0	0	0	0	513	1	
1	0	0	0	0	515	1	
2	0	0	0	0	519	1	
3	0	0	0	0	514	1	
4	0	0	0	0	513	1	
5	0	0	0	0	510	1	
6	0	0	0	0	507	1	
7	0	0	0	0	504	0	
8	0	0	0	0	506	1	
9	0	0	0	0	507	1	
10	0	0	0	0	504	1	
11	0	0	0	0	501	1	
12	0	0	0	0	494	1	
13	0	0	0	0	497	1	
14	0	0	0	0	504	1	
15	0	0	0	0	515	0	
0	0	0	0	0	521	1	
1	0	0	0	0	520	1	
2	0	0	0	0	519	1	
3	0	0	0	0	514	1	
4	0	0	0	0	518	1	
5	0	0	0	0	515	1	
6	0	0	0	0	508	1	
7	0	0	0	0	507	1	
8	0	0	0	0	506	1	
9	0	0	0	0	508	1	
10	0	0	0	0	503	1	
11	0	0	0	0	495	1	
12	0	0	0	0	499	1	
13	0	0	0	0	503	1	
14	0	0	0	0	509	1	
15	0	0	0	0	505	1	
0	0	0	0	0	503	1	
1	0	0	0	0	505	1	
2	0	0	0	0	504	1	
3	0	0	0	0	510	1	
4	0	0	0	0	518	1	
5	0	0	0	0	517	1	
6	0	0	0	0	517	1	
7	0	0	0	0	524	1	
8	0	0	0	0	520	1	
9	0	0	0	0	518	1	
10	0	0	0	0	518	1	
11	0	0	0	0	511	1	
12	0	0	0	0	511	0	
13	0	0	0	0	511	1	
14	0	0	0	0	515	1	
15	0	0	0	0	511	1	
0	0	0	0	0	499	1	
1	0	0	0	0	501	1	
2	0	0	0	0	508	1	
3	0	0	0	0	499	1	
4	0	0	0	0	494	0	
5	0	0	0	0	484	1	
6	0	0	0	0	496	1	
7	0	0	0	0	507	1	
8	0	0	0	0	514	1	
9	0	0	0	0	512	1	
10	0	0	0	0	511	1	
11	0	0	0	0	516	1	
12	0	0	0	0	520	0	
13	0	0	0	0	522	1	
14	0	0	0	0	525	1	
15	0	0	0	0	523	1	
0	0	0	0	0	512	1	
1	0	0	0	0	506	1	
2	0	0	0	0	507	1	
3	0	0	0	0	502	1	
4	0	0	0	0	504	1	
5	0	0	0	0	505	1	
6	0	0	0	0	504	1	
7	0	0	0	0	502	1	
8	0	0	0	0	501	1	
9	0	0	0	0	504	1	
10	0	0	0	0	507	1	
11	0	0	0	0	510	1	
12	0	0	0	0	512	1	
13	0	0	0	0	512	1	
14	0	0	0	0	519	1	
15	0	0	0	0	526	1	
0	0	0	0	0	519	1	
1	0	0	0	0	514	1	
2	0	0	0	0	515	1	
3	0	0	0	0	511	1	
4	0	0	0	0	508	1	
5	0	0	0	0	507	1	
6	0	0	0	0	503	1	
7	0	0	0	0	506	1	
8	0	0	0	0	503	1	
9	0	0	0	0	498	1	
10	0	0	0	0	501	1	
11	0	0	0	0	501	1	
12	0	0	0	0	502	0	
13	0	0	0	0	505	1	
14	0	0	0	0	508	1	
15	0	0	0	0	508	1	
0	0	0	0	0	512	1	
1	0	0	0	0	515	1	
2	0	0	0	0	516	1	
3	0	0	0	0	517	1	
4	0	0	0	0	518	0	
5	0	0	0	0	520	1	
6	0	0	0	0	523	1	
7	0	0	0	0	519	1	
8	0	0	0	0	518	1	
9	0	0	0	0	516	1	
10	0	0	0	0	515	1	
11	0	0	0	0	511	1	
12	0	0	0	0	508	1	
13	0	0	0	0	492	1	
14	0	0	0	0	489	1	
15	0	0	0	0	489	1	
0	0	0	0	0	491	1	
1	0	0	0	0	498	1	
2	0	0	0	0	504	1	
3	0	0	0	0	513	1	
4	0	0	0	0	510	1	
5	0	0	0	0	512	1	
6	0	0	0	0	518	1	
7	0	0	0	0	520	1	
8	0	0	0	0	519	1	
